0.017
0.034
0.052
0.07
0.089
0.107
0.127
0.147
0.165
0.185
0.203
0.222
0.242
0.261
0.28
0.297
0.316
0.336
0.354
0.372
0.389
0.408
0.426
0.446
0.464
0.482
0.5
0.517
0.536
0.555
0.573
0.591
0.61
0.628
0.646
0.665
0.682
0.701
0.72
0.741
0.758
0.776
0.794
0.812
0.831
0.849
0.868
0.886
0.904
0.922
0.94
0.959
0.978
0.996
1.014
1.032
1.05
1.069
1.088
1.107
1.126
1.144
1.163
1.18
1.202
1.224
1.241
1.261
1.279
1.299
1.319
1.34
1.358
1.377
1.395
1.413
1.432
1.454
1.474
1.493
1.512
1.53
1.55
1.568
1.588
1.607
1.625
1.644
1.662
1.679
1.698
1.716
1.734
1.752
1.771
1.79
1.809
1.829
1.85
1.868
1.888
1.908
1.927
1.946
1.965
1.987
2.008
2.026
2.046
2.066
2.084
2.102
2.122
2.14
2.16
2.179
2.198
2.218
2.239
2.257
2.277
2.294
2.313
2.332
2.351
2.37
2.388
2.407
2.425
2.444
2.462
2.48
2.499
2.518
2.536
2.554
2.573
2.591
2.61
2.628
2.646
2.665
2.684
2.702
2.719
2.737
2.755
2.773
2.792
2.811
2.828
2.847
2.865
2.884
2.904
2.923
2.94
2.959
2.979
3.004
3.023
3.041
3.06
3.079
3.098
3.118
3.137
3.155
3.173
3.192
3.211
3.235
3.258
3.277
3.296
3.315
3.334
3.354
3.372
3.39
3.408
3.426
3.444
3.462
3.481
3.499
3.518
3.537
3.555
3.574
3.593
3.611
3.631
3.65
3.669
3.687
3.704
3.723
3.742
3.76
3.78
3.798
3.816
3.835
3.854
3.871
3.895
3.917
3.936
3.955
3.978
3.996
4.015
4.033
4.05
4.07
4.09
4.109
4.131
4.153
4.173
4.192
4.21
4.229
4.247
4.266
4.283
4.303
4.322
4.34
4.358
4.377
4.396
4.413
4.43
4.448
4.47
4.489
4.507
4.525
4.542
4.56
4.58
4.6
4.619
4.64
4.66
4.677
4.696
4.714
4.738
4.758
4.775
4.794
4.811
4.829
4.846
4.865
4.884
4.902
4.921
4.939
4.958
4.975
4.993
5.011
5.028
5.047
5.066
5.084
5.102
5.125
5.143
5.162
5.179
5.197
5.221
5.24
5.258
5.275
5.294
5.312
5.331
5.351
5.369
5.387
5.406
5.428
5.448
5.467
5.486
5.503
5.523
5.55
5.576
5.594
5.613
5.631
5.649
5.668
5.686
5.705
5.724
5.742
5.76
5.778
5.795
5.813
5.831
5.849
5.867
5.885
5.904
5.923
5.941
5.96
5.978
5.996
6.014
6.031
6.049
6.069
6.089
6.109
6.128
6.147
55.7042 78.9059 63.3611 66.7463 57.4249 6.166
55.7064 78.9549 63.9913 66.991 57.6918 6.185
56.0335 79.0404 64.5392 67.41 58.1662 6.206
56.5844 79.078 64.7074 67.6035 58.4288 6.225
57.3618 79.1128 64.8443 67.8512 58.6769 6.244
57.8906 79.1452 64.9597 68.0429 58.8624 6.264
58.2704 79.175 65.0575 68.2946 59.1129 6.284
58.5888 79.2033 65.7881 68.5812 59.3188 6.303
58.9608 79.2293 67.8044 68.7849 59.4711 6.322
59.3611 79.2542 70.2523 69.0054 59.593 6.339
59.5395 75.2507 71.4359 69.1735 59.6913 6.358
59.6319 73.5933 71.8898 69.4091 59.7417 6.375
59.7276 73.1135 72.1263 69.7892 59.7836 6.394
62.2664 72.9379 72.4291 70.6759 59.8559 6.413
62.1301 72.4755 72.5416 71.1162 60.067 6.433
61.8846 72.3791 73.5593 71.5984 60.2021 6.452
61.87 72.326 74.3831 71.9313 60.3205 6.473
61.8878 72.2794 75.6495 72.1484 60.4042 6.492
61.0926 72.206 76.9422 72.3036 60.4648 6.51
60.3143 72.188 77.6902 72.6209 60.5115 6.528
59.8563 72.4822 78.1077 72.8853 60.7518 6.546
59.6465 73.0489 78.4059 73.2096 60.9562 6.566
59.5728 73.6927 78.6797 73.4577 61.1022 6.585
59.5925 74.4263 80.3951 73.7591 61.2922 6.604
59.5771 74.6051 81.5552 73.8599 61.5362 6.623
59.5635 75.0921 82.4828 74.4743 62.0699 6.643
59.3132 75.4839 83.0233 75.0756 62.7877 6.662
59.2615 75.6843 83.533 75.8885 63.7349 6.681
59.236 76.4407 83.8703 76.7695 64.6822 6.7
59.2184 77.0303 84.2552 77.3214 65.2677 6.72
59.1923 77.3829 84.5088 77.6388 65.8228 6.74
59.155 77.7764 84.633 78.8468 67.5494 6.759
59.1568 78.0528 84.6807 79.6048 68.1575 6.777
59.1682 78.2097 84.7407 80.4627 68.7889 6.797
59.1791 78.2749 84.8135 81.3539 69.6771 6.816
59.21 78.3466 84.8956 81.9007 70.7619 6.841
59.3714 78.4566 84.9691 82.6179 71.5752 6.861
59.3714 78.4566 84.9691 82.6179 71.5752 6.879
60.8458 78.5884 85.0514 83.8215 72.7311 6.897
62.0794 78.6458 85.0866 84.3419 73.3156 6.921
67.0396 78.7848 85.1707 86.1633 74.2885 6.94
68.3417 78.8451 85.2068 86.9847 74.4507 6.959
69.0747 78.8992 85.2391 87.4283 74.5918 6.978
70.068 78.9481 85.2681 87.9113 75.4511 6.997
70.7005 78.9929 85.2945 88.1931 76.1921 7.017
70.8846 79.0338 85.3186 88.5363 76.3964 7.035
70.7652 79.0716 85.3407 89.0177 76.5047 7.054
65.5817 79.1392 85.3803 89.1853 76.6791 7.072
63.4949 79.1696 85.398 89.2544 76.754 7.09
62.3459 79.198 85.4145 89.3183 76.8225 7.108
61.2016 79.2247 85.4299 89.3739 76.8854 7.127
60.4308 79.2499 85.4445 89.4254 76.9437 7.147
59.2545 79.2735 85.4581 89.4814 76.9974 7.167
57.5031 79.2958 85.471 89.553 77.0475 7.186
56.3487 79.3171 85.4833 89.582 77.0943 7.205
55.9843 79.3371 85.4948 89.6079 77.1381 7.224
55.2364 79.3562 85.5058 89.6772 77.1793 7.243
53.2947 79.3918 85.5262 89.5158 77.2546 7.263
53.1549 79.4082 85.5356 89.438 77.2889 7.284
52.9424 79.4241 85.5447 89.4508 77.3219 7.303
52.8676 79.4393 85.5534 89.525 77.353 7.322
52.888 79.4538 85.5616 89.6839 77.3824 7.342
52.9018 79.4677 85.5696 89.8013 77.4106 7.361
52.9112 79.4811 85.5772 90.0924 77.4375 7.379
52.9171 79.494 85.5846 90.1198 77.4632 7.398
53.6062 79.5183 85.5984 90.2386 77.5113 7.417
53.3411 79.5298 85.605 90.3507 77.646 7.436
52.9566 79.5409 85.6113 90.3881 77.773 7.453
52.7189 79.5516 85.6174 90.4354 77.3043 7.471
52.5182 79.562 85.6233 90.4991 77.2317 7.491
52.2612 79.572 85.629 90.5558 77.2114 7.51
51.9698 79.5817 85.6345 90.6033 77.2049 7.53
51.732 79.5911 85.6398 90.8643 77.0136 7.549
51.124 79.6002 85.6449 91.0947 76.8873 7.568
50.8568 79.609 85.65 91.2635 76.8026 7.587
50.6974 79.6259 85.6595 91.4869 76.6955 7.606
50.663 79.634 85.6641 91.5671 76.6578 7.624
50.6381 79.6419 85.6686 91.6921 76.674 7.648
50.6662 79.6495 85.6728 91.798 76.7273 7.668
50.697 79.6569 85.677 91.9336 76.9203 7.686
50.7239 79.6642 85.6812 92.118 77.1098 7.705
50.7465 79.6712 85.6851 92.3126 77.2881 7.724
50.7825 79.6848 85.6928 92.6063 77.8022 7.744
50.7973 79.6913 85.6965 92.7193 78.0338 7.763
50.8106 79.6977 85.7001 92.8129 78.1928 7.782
50.8225 79.7039 85.7036 92.8919 78.3064 7.8
50.8333 79.7099 85.707 93.009 78.3935 7.818
50.8576 79.7159 85.7103 93.1532 78.4236 7.837
50.8861 79.7216 85.7136 93.2752 78.4497 7.855
50.9299 79.7273 85.7168 93.374 78.4743 7.872
50.9688 79.7328 85.7199 93.4819 78.4974 7.891
51.0004 79.7382 85.7229 93.574 78.6255 7.911
51.0264 79.7435 85.7259 93.6516 78.6694 7.93
51.0095 79.7487 85.7288 93.7176 78.7759 7.949
50.9919 79.7537 85.7317 93.8377 78.845 7.968
50.9647 79.7635 85.7372 94.157 78.9925 7.987
50.6867 79.7683 85.7399 94.2948 79.1555 8.005
50.4877 79.773 85.7425 94.4463 79.3055 8.026
50.379 79.7775 85.745 94.5655 79.4262 8.046
49.5824 79.782 85.7476 94.6127 79.524 8.065
45.4678 79.7864 85.75 94.6129 79.606 8.084
48.8398 79.7907 85.7524 94.6198 79.6765 8.103
49.7427 79.7949 85.7548 94.4335 79.7368 8.123
50.1061 79.799 85.7571 94.3895 79.7904 8.142
50.3429 79.8071 85.772 94.2767 79.8806 8.162
50.4084 79.811 85.7096 94.2268 59.8196 8.181
50.4627 79.8149 85.6628 94.1203 57.0155 8.199
50.5081 79.8187 85.6394 94.0377 56.7066 8.218
50.5471 79.8224 85.6175 93.9782 56.6327 8.237
50.5814 79.8261 85.5905 93.9332 56.6081 8.255
50.6118 79.8297 85.5657 93.8974 56.5938 8.276
50.6385 79.8332 85.5434 93.8684 56.5831 8.296
50.6629 79.8366 85.5226 93.8437 56.5742 8.316
50.7051 80.1596 85.4857 93.8041 56.5603 8.334
50.7237 80.2748 85.4692 93.7878 56.5547 8.354
50.7406 80.362 85.4538 93.7734 56.5497 8.374
50.7564 80.4319 85.4393 93.7603 56.5453 8.392
50.7711 80.4894 85.4257 93.7486 56.5413 8.411
50.7847 80.5381 85.4703 93.7379 56.5377 8.429
50.7975 80.5801 85.5118 93.728 56.5345 8.447
50.8095 80.6169 85.5459 93.719 56.5315 8.471
50.8314 80.6785 85.5979 93.7029 56.5261 8.494
50.8414 80.7046 85.6184 93.6957 56.5238 8.514
50.8509 80.7284 85.6363 93.689 56.5216 8.532
50.8599 80.7502 85.6522 93.6827 56.5195 8.551
50.8685 80.7701 85.6664 93.6767 56.5176 8.571
50.8767 80.7885 85.6792 93.6712 56.5158 8.591
50.8844 80.8056 85.6908 93.6659 56.5141 8.609
50.8989 80.8362 85.7111 93.6562 56.511 8.628
50.9057 80.85 85.72 93.6517 56.5095 8.646
50.9122 80.863 85.7283 93.6474 56.5082 8.664
50.9185 80.8753 85.736 93.6434 56.5069 8.689
50.9245 80.8868 85.7432 93.6395 56.5057 8.708
50.9302 80.8976 85.7499 93.6358 56.5045 8.728
50.9358 80.908 85.7563 93.6323 56.5034 8.747
50.9411 80.9178 85.7622 93.6289 56.5023 8.765
50.9463 80.9271 85.7678 93.6257 56.5013 8.784
50.9561 80.9444 85.6819 93.6196 56.4993 8.803
50.9607 80.9523 85.6009 93.6167 56.4984 8.822
50.9652 80.9601 85.5371 93.6139 56.4976 8.842
50.9696 80.9675 85.4874 93.6113 56.4967 8.86
50.9738 80.9746 85.4469 93.6087 56.4959 8.878
50.9778 80.9813 85.4132 93.6062 56.4951 8.896
50.9818 80.9879 85.3844 93.6038 56.4944 8.914
50.9857 80.9942 85.3594 93.6015 56.4937 8.933
50.9894 81.0002 85.3375 93.5993 56.493 8.952
50.993 81.006 85.3179 93.5971 56.4923 8.97
50.9965 81.0116 85.3004 93.595 56.4916 8.989
51.0033 81.0222 85.2703 93.591 56.4904 9.008
51.0065 81.0273 85.2571 93.5891 56.4898 9.028
51.0097 81.0322 85.245 67.2744 56.4892 9.053
51.0127 81.0369 85.2338 65.3229 56.4887 9.072
51.0157 81.0415 85.2235 65.2128 56.4881 9.091
51.0187 81.0459 85.2139 65.1936 56.4876 9.11
51.0243 81.0544 85.1964 65.1853 56.4865 9.13
51.027 81.0585 85.1886 65.1834 56.4861 9.149
51.0297 81.0624 85.1811 65.1819 56.4856 9.167
51.0322 81.0662 85.1741 65.1806 56.4851 9.187
51.0348 81.07 85.1674 65.1796 56.4847 9.206
51.0372 81.0736 85.1611 65.1787 56.4842 9.225
51.0397 81.0771 85.1552 65.1779 56.4838 9.245
51.042 81.0805 85.1495 65.1772 56.4834 9.263
51.0444 81.0839 85.1441 65.1766 56.483 9.282
51.0466 81.0872 85.139 65.1761 56.4826 9.3
51.051 81.0935 85.1293 65.1752 56.4818 9.319
51.0531 81.0965 85.1248 65.1748 56.4815 9.338
51.0552 81.0995 85.1205 65.1744 56.4811 9.356
51.0573 81.1023 85.1163 65.1741 56.4808 9.375
51.0593 81.1052 85.1124 65.1738 56.4804 9.394
51.0613 81.1079 85.1085 65.1735 56.4801 9.412
51.0632 81.1106 85.1049 65.1732 56.4797 9.431
51.0651 81.1133 85.1013 65.173 56.4794 9.451
51.0669 81.1158 85.0979 65.1728 56.4791 9.47
51.0687 81.1184 85.0946 65.1726 56.4788 9.489
51.0705 81.1208 85.0914 65.1724 56.4785 9.507
51.074 81.1256 85.0853 65.172 56.4779 9.527
51.0757 81.128 85.0824 65.1718 56.4776 9.547
51.0774 81.1302 85.0796 65.1717 56.4773 9.567
51.079 81.1324 85.0769 65.1715 56.477 9.587
51.0806 81.1347 85.0742 65.1714 56.4768 9.607
51.0822 81.1368 85.0717 65.1712 56.4765 9.627
51.0837 81.1389 85.0692 65.1711 56.4762 9.646
51.0868 81.143 85.0645 65.1708 56.4757 9.665
51.0883 81.145 85.0622 65.1707 56.4755 9.684
51.0897 81.1469 85.06 65.1706 56.4752 9.701
51.0911 81.1488 85.0578 65.1705 56.475 9.72
51.0926 81.1507 85.0557 65.1704 56.4748 9.738
51.0939 81.1526 85.0537 65.1703 56.4745 9.758
51.0953 81.1544 85.0517 65.1702 56.4743 9.777
51.0966 81.1562 85.0497 65.1701 56.4741 9.796
51.098 81.1579 85.0478 65.1701 56.4739 9.816
51.0993 81.1596 85.046 65.17 56.4484 9.835
51.1006 81.1613 85.0442 65.1699 56.4238 9.853
51.1019 81.163 85.0424 65.1698 56.4012 9.872
51.1043 81.1663 85.039 65.1697 56.3614 9.891
51.1056 81.1679 85.0373 65.1696 56.3436 9.918
51.1067 81.1694 85.0357 65.1695 56.3194 9.937
51.1079 81.171 85.0342 65.1695 56.2967 9.956
51.1091 81.1725 85.0326 65.1694 56.2758 9.974
51.1102 81.174 85.0311 65.1693 56.2568 9.998
51.1125 81.1769 85.0282 65.1692 56.223 10.021
51.1136 81.1783 85.0268 65.1692 56.2079 10.041
51.1146 81.1797 85.0254 65.1691 56.1939 10.06
51.1157 81.1811 85.024 65.1691 56.1808 10.079
51.1178 81.1838 85.0214 65.169 56.1603 10.098
51.1189 81.1851 85.0201 65.1689 56.1508 10.122
51.1199 81.1864 85.0188 65.1689 56.1419 10.144
51.1209 81.1877 85.0176 65.1688 56.1334 10.162
51.1219 81.189 85.0164 65.1688 56.1085 10.181
51.1238 81.1915 85.014 65.1687 56.0633 10.204
51.1248 81.1927 85.0128 65.1686 56.0435 10.229
51.1257 81.1939 85.0117 65.1686 56.0258 10.249
51.1267 81.1951 85.0106 65.1686 56.009 10.269
51.1285 81.1974 85.0085 65.1685 55.9233 10.288
51.1294 81.1986 85.0074 65.1685 55.8821 10.307
51.1303 81.1997 85.0064 65.1684 55.8466 10.325
51.1312 81.2008 85.0054 65.1684 55.8155 10.344
51.132 81.2019 85.0043 65.1684 55.7881 10.362
51.1329 81.203 85.0034 65.1683 55.7638 10.381
51.1337 81.204 85.0024 65.1683 55.7419 10.401
51.1346 81.2051 85.0014 65.1683 55.7221 10.42
51.1354 81.2061 85.0005 65.1682 55.704 10.438
51.1362 81.2072 84.9996 65.1682 55.6875 10.457
51.137 81.2082 84.9987 65.1682 55.6722 10.476
51.1378 81.2092 84.9978 78.2912 66.5847 10.494
10.513
10.531
10.549
10.567
10.585
10.604
10.623
10.641
10.658
10.676
10.694
10.713
10.731
10.754
10.776
10.799
10.819
10.838
10.856
10.874
10.895
10.913
10.932
10.95
10.968
10.987
11.005
11.023
11.042
11.061
11.079
11.096
11.12
11.138
11.157
11.174
11.194
11.213
11.237
11.257
11.276
11.295
11.314
11.334
11.353
11.373
11.393
11.41
11.433
11.455
11.476
11.496
11.515
11.535
11.554
11.572
11.59
11.607
11.625
11.644
11.661
11.68
11.698
11.717
11.734
11.752
11.77
11.794
11.815
11.834
11.854
11.872
11.892
11.915
11.937
11.955
11.974
11.993
12.012
12.03
12.049
12.068
12.086
12.104
12.122
12.141
12.16
12.186
12.209
12.231
12.25
12.27
12.289
12.309
12.33
12.353
12.37
12.388
12.406
12.425
12.444
12.461
12.48
12.497
12.516
12.534
12.553
12.571
12.59
12.608
12.627
12.645
12.663
12.68
12.699
12.718
12.736
12.755
12.773
12.792
12.811
12.829
12.851
12.87
12.89
12.909
12.927
12.945
12.963
12.981
12.998
13.017
13.034
13.053
13.071
13.09
13.108
13.126
13.144
13.163
13.182
13.2
13.218
13.244
13.262
13.28
13.301
13.325
13.346
13.364
13.384
13.403
13.423
13.443
13.46
13.479
13.497
13.516
13.535
13.553
13.571
13.589
13.607
13.625
13.646
13.669
13.688
13.708
13.726
13.746
13.764
13.783
13.801
13.818
13.838
13.857
13.877
13.901
13.919
13.937
13.955
13.973
13.991
14.011
14.03
14.048
14.066
14.085
14.104
14.122
14.141
14.159
14.177
14.195
14.217
14.24
14.26
14.279
14.297
14.32
14.346
14.365
14.384
14.403
14.422
14.44
14.457
14.475
14.494
14.513
14.531
14.554
14.571
14.589
14.608
14.625
14.645
14.664
14.683
14.701
14.72
14.739
14.761
14.781
14.8
14.819
14.836
14.855
14.873
14.892
14.911
14.929
14.949
14.966
14.984
15.007
15.027
15.044
15.061
15.08
15.098
15.12
15.142
15.165
15.183
15.201
15.22
15.239
15.257
15.276
15.295
15.314
15.333
15.351
15.37
15.39
15.408
15.427
15.445
15.464
15.483
15.507
15.529
15.548
15.565
15.585
15.604
15.623
15.641
15.661
15.68
15.698
15.715
15.733
15.756
15.775
15.794
15.813
15.831
15.85
15.869
15.887
15.906
15.926
15.944
15.962
15.981
15.999
16.017
16.035
16.054
16.072
16.09
16.108
16.127
16.145
16.167
16.189
16.207
16.225
16.244
16.262
16.28
16.299
16.317
16.336
16.355
16.373
16.392
16.41
16.43
16.448
16.467
16.485
16.504
16.522
16.541
16.56
16.577
16.595
16.614
16.633
16.652
16.671
16.689
16.708
16.726
16.745
16.764
16.782
16.8
16.819
16.838
16.857
16.875
16.894
16.912
16.931
16.949
16.966
16.986
17.003
17.022
17.041
17.059
17.077
17.096
17.115
17.133
17.151
17.169
17.188
17.205
17.223
17.242
17.259
17.278
17.296
17.314
17.333
17.35
17.368
17.387
17.407
17.426
17.447
17.464
17.484
17.502
17.521
17.541
17.558
17.578
17.597
17.614
17.633
17.653
17.672
17.69
17.71
17.729
17.748
17.767
17.786
17.803
17.821
17.845
17.865
17.884
17.903
17.921
17.94
17.959
17.977
17.996
18.014
18.033
18.057
18.08
18.103
18.123
18.142
18.161
18.18
18.198
18.217
18.237
18.256
18.276
18.293
18.311
18.328
18.347
18.366
18.384
18.401
18.42
18.439
18.457
18.476
18.494
18.513
18.532
18.55
18.568
18.587
18.607
18.625
18.642
18.66
18.679
18.696
18.714
18.732
18.751
18.77
18.788
18.806
18.824
18.842
18.862
18.881
18.9
18.92
18.938
18.957
18.975
18.996
19.015
19.033
19.052
19.071
19.09
19.11
19.129
19.148
19.168
19.186
19.205
19.222
19.239
19.257
19.275
19.295
19.314
19.332
19.351
19.369
19.388
19.407
19.427
19.446
19.463
19.484
19.505
19.524
19.542
19.562
19.581
19.601
19.619
19.638
19.657
19.677
19.695
19.714
19.733
19.753
19.771
19.791
19.808
19.826
19.845
19.867
19.89
19.914
19.934
19.954
19.972
19.992
20.01
20.027
20.046
20.064
20.083
20.1
20.118
20.141
20.163
20.181
20.204
20.229
20.251
20.269
20.286
20.304
20.327
20.346
20.365
20.385
20.404
20.422
20.44
20.459
20.482
20.504
20.524
20.543
20.561
20.58
20.599
20.618
20.636
20.654
20.673
20.692
20.71
20.728
20.746
20.764
20.782
20.801
20.82
20.84
20.857
20.876
20.894
20.912
20.93
20.948
20.967
20.986
21.006
21.025
21.042
21.061
21.08
21.097
21.115
21.138
21.156
21.175
21.193
21.214
21.232
21.25
21.269
21.287
21.306
21.325
21.345
21.364
21.383
21.402
21.42
21.438
21.457
21.477
21.497
21.515
21.532
21.552
21.571
21.59
21.609
21.628
21.646
21.668
21.69
21.712
21.732
21.756
21.779
21.797
21.814
21.832
21.85
21.873
21.898
21.917
21.936
21.955
21.974
21.993
22.013
22.032
22.049
22.068
22.088
22.107
22.124
22.143
22.161
22.184
22.203
22.221
22.24
22.259
22.278
22.301
22.32
22.339
22.356
22.374
22.393
22.41
22.43
22.448
22.467
22.486
22.51
22.53
22.549
22.575
22.602
22.625
22.646
22.666
22.685
22.702
22.721
22.741
22.759
22.777
22.795
22.812
22.832
22.85
22.87
22.891
22.914
22.939
22.961
22.979
22.998
23.021
23.044
23.065
23.082
23.1
23.119
23.138
23.156
23.175
23.192
23.21
23.232
23.251
23.269
23.293
23.312
23.33
23.35
23.37
23.388
23.411
23.432
23.451
23.472
23.491
23.509
23.528
23.553
23.575
23.594
23.614
23.632
23.652
23.672
23.69
23.709
23.728
23.748
23.766
23.783
23.807
23.827
23.846
23.864
23.881
23.9
23.919
23.938
23.957
23.975
23.993
24.011
24.03
24.049
24.067
24.085
24.105
24.127
24.146
24.165
24.183
24.2
24.218
24.236
24.254
24.271
24.288
24.306
24.323
24.342
24.362
24.38
24.398
24.416
24.434
24.456
24.475
24.495
24.512
24.531
24.551
24.569
24.588
24.608
24.627
24.645
24.664
24.688
24.709
24.728
24.746
24.764
24.784
24.803
24.82
24.837
24.856
24.88
24.902
24.921
24.941
24.959
24.979
24.998
25.017
25.036
25.055
25.081
25.103
25.13
25.148
25.168
25.188
25.207
25.226
25.245
25.265
25.287
25.312
25.337
25.361
25.379
25.397
25.416
25.44
25.459
25.478
25.497
25.517
25.535
25.56
25.579
25.598
25.616
25.635
25.654
25.674
25.693
25.713
25.737
25.758
25.777
25.798
25.816
25.834
25.853
25.873
25.89
25.909
25.926
25.944
25.962
25.98
25.999
26.017
26.036
26.054
26.072
26.091
26.109
26.128
26.146
26.169
26.188
26.207
26.225
26.245
26.263
26.283
26.301
26.319
26.342
26.361
26.379
26.397
26.416
26.44
26.46
26.479
26.497
26.521
26.539
26.559
26.578
26.597
26.615
26.635
26.655
26.674
26.692
26.711
26.735
26.754
26.774
26.794
26.816
26.836
26.856
26.875
26.893
26.913
26.931
26.949
26.968
26.985
27.004
27.023
27.042
27.061
27.086
27.106
27.125
27.147
27.168
27.186
27.206
27.223
27.241
27.259
27.279
27.298
27.317
27.336
27.36
27.382
27.405
27.423
27.446
27.47
27.494
27.512
27.53
27.548
27.566
27.592
27.616
27.639
27.659
27.677
27.696
27.719
27.738
27.756
27.776
27.798
27.823
27.846
27.872
27.894
27.913
27.932
27.951
27.969
27.989
28.008
28.027
28.044
28.062
28.079
28.098
28.117
28.134
28.152
28.172
28.19
28.209
28.233
28.258
28.281
28.307
28.33
28.349
28.367
28.385
28.404
28.428
28.45
28.47
28.488
28.507
28.525
28.542
28.56
28.578
28.597
28.617
28.637
28.655
28.681
28.705
28.723
28.742
28.76
28.778
28.796
28.815
28.833
28.853
28.872
28.891
28.91
28.928
28.946
28.965
28.983
29.003
29.023
29.041
29.064
29.087
29.11
29.129
29.149
29.166
29.184
29.204
29.224
29.242
29.262
29.28
29.3
29.319
29.338
29.358
29.376
29.396
29.415
29.434
29.452
29.472
29.491
29.512
29.538
29.562
29.587
29.605
29.623
29.641
29.659
29.677
29.696
29.715
29.732
29.755
29.775
29.793
29.812
29.837
29.856
29.876
29.895
29.914
29.931
29.95
29.969
29.992
30.012
30.03
30.049
30.068
30.086
30.106
30.123
30.141
30.159
30.177
30.195
30.214
30.232
30.25
30.269
30.286
30.305
30.323
30.342
30.361
30.38
30.399
30.419
30.436
30.455
30.474
30.495
30.515
30.534
30.554
30.572
30.594
30.614
30.632
30.651
30.669
30.688
30.705
30.723
30.742
30.762
30.782
30.806
30.825
30.845
30.864
30.888
30.905
30.924
30.946
30.966
30.984
31.002
31.021
31.038
31.056
31.075
31.1
31.123
31.145
31.167
31.185
31.204
31.222
31.241
31.259
31.277
31.296
31.314
31.334
31.352
31.371
31.39
31.408
31.427
31.445
31.465
31.482
31.501
31.524
31.543
31.562
31.581
31.598
31.617
31.636
31.655
31.674
31.692
31.71
31.73
31.75
31.768
31.787
31.806
31.825
31.851
31.874
31.892
31.911
31.93
31.949
31.968
31.986
32.005
32.025
32.043
32.062
32.081
32.1
32.119
32.137
32.157
32.181
32.203
32.223
32.241
32.26
32.279
32.297
32.316
32.333
32.352
32.371
32.39
32.407
32.424
32.441
32.46
32.479
32.5
32.518
32.538
32.558
32.577
32.596
32.615
32.634
32.657
32.681
32.705
32.726
32.744
32.765
32.783
32.806
32.831
32.857
32.879
32.903
32.921
32.94
32.959
32.977
32.996
33.015
33.033
33.053
33.073
33.091
33.11
33.128
33.147
33.167
33.186
33.206
33.225
33.244
33.263
33.281
33.3
33.32
33.339
33.358
33.378
33.395
33.413
33.433
33.457
33.476
33.495
33.513
33.533
33.553
33.572
33.59
33.614
33.632
33.65
33.668
33.694
33.716
33.737
33.755
33.774
33.793
33.814
33.832
33.851
33.87
33.89
33.909
33.928
33.947
33.966
33.985
34.004
34.024
34.044
34.063
34.081
34.099
34.119
34.137
34.156
34.176
34.194
34.212
34.23
34.251
34.27
34.292
34.312
34.331
34.35
34.366
34.384
34.402
34.421
34.441
34.459
34.478
34.496
34.513
34.532
34.55
34.57
34.589
34.609
34.627
34.649
34.668
34.689
34.706
34.725
34.744
34.763
34.782
34.8
34.818
34.836
34.854
34.874
34.892
92.0077 104.372 101.627 98.401 92.0299 34.911
91.7016 104.236 102.403 99.0179 92.2893 34.93
91.4315 103.769 103.013 99.4033 92.4804 34.949
91.0981 103.369 103.47 99.8205 92.6173 34.967
90.4883 103.071 103.835 100.01 92.6835 34.988
89.1188 102.932 104.449 100.019 92.6818 35.006
85.4342 102.669 105.447 99.0968 91.7931 35.026
81.4223 102.534 105.932 97.4751 89.9276 35.046
77.0079 102.387 106.432 94.625 86.8941 35.065
72.7945 102.268 106.527 90.9893 81.9465 35.083
70.854 101.786 105.689 86.5417 79.6419 35.101
69.6471 100.723 103.746 81.6958 77.8539 35.119
68.8559 99.0704 100.161 80.129 76.1997 35.14
68.0892 95.6025 91.2834 80.5845 74.9158 35.158
67.4087 88.6774 86.759 80.618 73.7954 35.177
66.8539 87.0005 84.2729 78.3612 73.0217 35.195
66.4415 84.8017 81.7568 74.1845 72.6327 35.213
66.3817 80.3174 80.57 73.2169 72.4211 35.231
66.7905 77.3701 80.5782 75.9282 71.8298 35.25
68.4858 76.6497 81.6663 78.444 71.6749 35.27
71.3256 76.6984 84.9552 80.5474 72.0975 35.288
73.3185 78.4375 87.5694 82.3073 72.8905 35.306
74.6336 81.3728 89.2459 83.6742 73.8453 35.324
76.1378 84.6601 91.252 85.3131 74.6689 35.342
76.7057 86.3116 92.2776 86.2526 75.3718 35.36
76.8705 87.82 93.0579 86.9802 76.3796 35.38
76.6923 89.0638 93.9295 87.4565 77.2942 35.401
75.3891 90.8268 94.787 88.3664 78.3506 35.419
74.5866 91.528 95.3261 88.8276 79.0008 35.437
73.9916 92.0238 95.8799 89.2729 79.4767 35.456
73.5915 92.4174 96.3314 89.8095 79.8425 35.475
73.2984 92.7584 96.7836 90.3799 80.1623 35.495
73.0603 93.1202 97.1372 90.9354 80.5162 35.513
72.8984 93.7103 97.7172 91.4605 80.9982 35.531
72.8633 93.8959 97.9002 91.6317 81.1442 35.555
72.7717 94.5832 98.5615 92.721 81.6776 35.575
72.7662 94.8395 99.0678 93.3543 82.0307 35.593
72.8473 95.1215 99.4507 94.031 82.5326 35.612
73.1987 95.3831 99.9178 94.7113 83.1291 35.63
74.2803 95.5841 100.308 95.3491 83.9882 35.65
75.8426 95.8531 100.872 96.0555 84.6484 35.669
78.8072 96.5363 101.653 96.9579 86.2943 35.695
80.2785 97.0034 102.087 97.4731 87.2045 35.715
81.6672 97.7078 102.588 98.0946 88.2566 35.733
82.2885 98.2072 103.09 98.3049 88.9865 35.752
82.6124 98.7865 103.549 98.3857 89.6382 35.772
82.8719 99.3455 104.109 98.4935 90.1235 35.791
83.3022 100.225 104.842 98.5476 90.532 35.811
83.3959 100.679 105.129 98.5189 90.5849 35.83
83.5262 101.016 105.274 98.5382 90.6219 35.848
83.6241 101.244 105.378 98.5177 90.6489 35.867
83.628 101.371 105.509 98.4962 90.6702 35.886
83.639 101.507 105.57 98.5028 90.7107 35.904
83.6323 101.634 105.666 98.5027 90.7636 35.922
83.5675 101.751 105.731 98.4908 90.7955 35.943
83.4804 101.808 105.787 98.5465 90.8172 35.962
83.4423 101.917 105.839 98.5638 90.9111 35.981
83.3934 102.059 105.896 98.5956 90.9538 36
83.3832 102.265 106.027 98.6112 91.0031 36.018
83.4388 102.433 106.117 98.6361 91.0566 36.036
83.493 102.57 106.213 98.697 91.1675 36.055
83.5353 102.712 106.249 98.7994 91.3266 36.074
83.6125 102.831 106.284 98.9226 91.4368 36.093
83.6747 102.936 106.31 99.1334 91.5118 36.112
83.7776 103.091 106.409 99.3489 91.6191 36.131
83.8677 103.183 106.517 99.4727 91.7378 36.151
83.9283 103.271 106.623 99.615 91.8366 36.17
83.9889 103.349 106.726 99.7471 91.9211 36.188
84.053 103.412 106.79 99.8851 92.0329 36.207
84.1574 103.507 106.887 100.084 92.1781 36.226
84.1794 103.594 106.942 100.213 92.2485 36.243
84.191 103.657 107.016 100.292 92.3314 36.263
84.1842 103.712 107.085 100.375 92.3757 36.282
84.1428 103.764 107.13 100.435 92.3902 36.301
84.0258 103.847 107.242 100.475 92.3804 36.319
84.0258 103.847 107.242 100.475 92.3804 36.339
83.9386 103.908 107.306 100.509 92.354 36.358
83.8611 103.969 107.357 100.524 92.3271 36.378
83.7865 104.009 107.426 100.532 92.2895 36.396
83.6648 104.091 107.497 100.57 92.2379 36.416
83.5986 104.123 107.533 100.598 92.2065 36.435
83.5488 104.15 107.565 100.628 92.1672 36.455
83.4876 104.184 107.608 100.67 92.1415 36.474
83.39 104.227 107.704 100.719 92.1037 36.494
83.3537 104.252 107.756 100.745 92.0834 36.513
83.3371 104.279 107.802 100.78 92.0554 36.532
83.313 104.304 107.845 100.831 92.0313 36.55
83.3086 104.323 107.901 100.863 92.0166 36.569
83.2932 104.339 107.921 100.894 92.0137 36.588
83.2607 104.355 107.925 100.901 92.0065 36.607
83.2459 104.359 107.926 100.927 92.0028 36.626
83.2305 104.364 107.927 100.958 91.9995 36.652
83.2161 104.374 107.93 100.961 91.9924 36.674
83.1689 104.379 107.946 100.961 91.9862 36.693
83.1207 104.386 107.963 100.956 91.9845 36.711
83.0789 104.398 108.002 100.906 91.9842 36.731
83.0314 104.432 108.055 100.73 91.9875 36.75
82.8925 104.509 108.106 100.265 91.991 36.768
82.2395 104.65 108.25 98.8895 91.9526 36.788
81.0156 104.698 108.328 97.0955 91.8553 36.807
79.0388 104.651 108.323 93.4828 91.5583 36.826
76.6091 104.355 107.944 89.0399 90.568 36.845
74.1563 103.553 106.582 87.3862 88.3367 36.864
70.4832 101.807 97.6164 87.0923 84.3758 36.883
69.2573 76.4404 92.1772 86.9459 82.2778 36.902
68.8563 70.8806 71.4198 63.276 57.8821 36.921
68.6029 67.1657 65.6255 62.7619 53.559 36.939
68.3676 65.4697 65.0614 62.5174 53.3292 36.958
68.1102 65.1606 64.9478 62.4286 53.1168 36.977
67.755 64.6442 65.0634 61.9102 52.8387 36.995
67.4046 62.9971 64.6892 60.2765 51.2971 37.014
67.3711 62.1356 64.369 59.8758 50.4437 37.033
67.3774 61.6924 64.3155 59.7263 50.0108 37.051
67.4194 61.4996 64.3078 59.6626 49.7448 37.07
67.4787 61.3989 64.3129 59.636 49.6463 37.088
67.6391 61.36 64.3358 59.6272 49.5892 37.107
67.6681 61.3306 64.3412 59.6476 49.5828 37.124
67.6012 61.304 64.3459 59.7202 49.6285 37.144
67.7508 61.1193 64.3499 59.8469 49.8034 37.162
67.9351 61.1794 64.5828 60.1217 50.1177 37.181
68.757 61.3922 67.6633 60.8982 50.1808 37.199
71.4232 63.4581 71.1449 63.4874 50.4479 37.218
74.5553 82.7084 91.054 82.3629 65.5021 37.237
74.1946 95.7346 102.826 96.7864 81.7758 37.257
74.2719 97.8112 104.014 99.0928 85.9747 37.274
74.7019 98.5335 104.374 99.758 87.6667 37.293
75.5128 99.0358 104.655 100.026 88.6261 37.312
76.8701 99.6597 105.029 100.425 89.7531 37.333
77.6818 100.088 105.279 100.574 90.3991 37.353
78.3727 100.543 105.566 100.7 90.8128 37.373
78.8881 100.918 105.787 100.811 91.1141 37.392
79.5844 101.392 106.11 100.957 91.4426 37.411
79.8044 101.508 106.223 100.992 91.528 37.429
80.1873 101.695 106.317 101.062 91.6535 37.449
80.4987 101.876 106.426 101.133 91.7622 37.469
80.9387 102.243 106.646 101.234 91.9302 37.488
81.1678 102.512 106.771 101.308 92.0155 37.508
81.4294 102.729 106.912 101.376 92.1614 37.527
81.6971 102.936 107.047 101.454 92.2725 37.546
81.8968 103.186 107.162 101.535 92.3491 37.565
82.1254 103.431 107.321 101.649 92.4245 37.584
82.2738 103.575 107.403 101.712 92.455 37.604
82.4489 103.709 107.473 101.759 92.4807 37.624
82.5653 103.813 107.534 101.805 92.51 37.643
82.7749 103.952 107.634 101.877 92.5441 37.663
82.8967 104.037 107.693 101.891 92.57 37.682
82.9881 104.149 107.758 101.867 92.5894 37.701
83.1321 104.265 107.842 101.755 92.6055 37.72
83.2167 104.391 107.934 101.504 92.6239 37.739
83.2769 104.608 108.116 100.776 92.6544 37.757
83.2749 104.788 108.285 99.8868 92.6773 37.775
83.2196 105.003 108.489 98.2971 92.7537 37.794
82.9712 105.203 108.621 96.0351 92.8241 37.812
82.4759 105.357 108.747 92.9681 92.8111 37.83
81.8447 105.416 108.797 90.562 92.7154 37.849
81.2209 105.426 108.821 87.8092 92.5539 37.868
80.0145 105.373 108.78 84.1236 91.8473 37.888
79.0818 105.214 108.564 83.0749 90.6659 37.908
78.1676 104.832 108.301 82.5491 88.7084 37.927
77.3577 104.369 107.932 82.0373 86.5001 37.946
76.49 103.594 107.439 80.7604 82.53 37.965
76.1106 103.174 106.941 80.0562 80.0505 37.985
75.8717 102.797 106.368 79.3703 78.1452 38.005
75.6502 102.266 105.54 78.7686 76.0769 38.025
75.5336 101.96 105.122 78.6265 75.0192 38.043
75.4591 101.714 104.71 78.5187 73.972 38.062
75.4189 101.479 104.37 78.4432 73.0221 38.082
75.4052 101.253 104.074 78.504 72.3904 38.106
75.392 100.945 103.674 78.6493 72.109 38.126
75.3841 100.751 103.457 78.6824 72.0923 38.144
75.3787 100.529 103.171 78.7607 72.1452 38.163
75.405 100.362 102.95 78.9686 72.2028 38.182
75.4788 100.17 102.692 79.5663 72.2684 38.201
75.576 99.9525 102.381 79.9664 72.3438 38.219
75.6987 99.7139 102.11 80.2741 72.5198 38.239
76.0626 99.3661 101.761 82.4162 73.3334 38.259
76.3936 99.1334 101.502 85.2095 74.823 38.278
76.6637 98.9644 101.314 87.7948 76.5257 38.296
76.8677 98.8641 101.164 90.3327 77.8229 38.315
77.0353 98.8148 101.152 92.0526 79.0563 38.335
77.2937 98.7962 101.239 93.5922 80.8672 38.356
77.4451 98.8413 101.37 94.328 81.9027 38.374
77.5598 98.903 101.557 94.8522 82.7882 38.393
77.6549 98.9875 101.865 95.4954 83.4952 38.413
77.7566 99.105 102.269 96.1254 84.1224 38.431
77.8798 99.3381 102.682 96.8168 85.0246 38.45
77.9396 99.5575 103.003 97.1423 85.4539 38.468
77.9799 99.7703 103.277 97.4288 85.861 38.487
78.0232 100.005 103.489 97.761 86.2138 38.505
78.088 100.258 103.723 98.0936 86.5281 38.523
78.088 100.258 103.723 98.0936 86.5281 38.542
78.1989 100.728 104.217 98.3189 86.8802 38.561
78.2602 100.995 104.405 98.47 87.0804 38.579
78.3089 101.203 104.514 98.5625 87.2581 38.598
78.3439 101.356 104.559 98.6891 87.3654 38.616
78.379 101.473 104.577 98.744 87.4806 38.636
78.4156 101.551 104.607 98.7883 87.596 38.655
78.4943 101.635 104.627 98.8312 87.8539 38.673
78.5486 101.661 104.528 98.8743 88.1216 38.694
78.5996 101.681 104.358 98.8834 88.3943 38.714
78.6473 101.707 104.033 98.8945 88.6271 38.732
78.6523 101.73 103.318 98.9364 89.0128 38.751
78.634 101.753 102.647 98.9441 89.2796 38.77
78.6057 101.846 101.496 98.9536 89.4882 38.792
78.5504 102.039 100.012 98.9589 89.6778 38.81
78.4766 102.367 97.7404 98.9013 89.8889 38.832
78.4297 102.506 96.2968 98.6263 89.9968 38.852
78.3635 102.603 94.4248 98.0375 90.1104 38.87
78.3185 102.659 92.4017 97.2423 90.2806 38.889
78.2448 102.68 89.12 95.5833 90.5449 38.907
78.2105 102.678 86.3101 94.3763 90.6991 38.927
78.1899 102.647 85.0444 93.0833 90.797 38.946
78.1796 102.528 84.1271 91.8862 90.8629 38.966
78.1709 102.148 83.3567 90.311 90.9043 38.985
78.1414 101.872 83.1161 89.5067 90.9016 39.005
78.1216 101.57 83.0285 88.798 90.8856 39.025
78.1159 101.312 82.9773 88.1969 90.8539 39.049
78.1118 101.048 82.9901 87.3289 90.7913 39.069
78.1073 100.856 83.6559 86.59 90.7436 39.086
78.102 100.66 85.3814 85.5433 90.6311 39.105
78.0983 100.515 86.3095 85.2313 90.5745 39.123
78.0871 100.381 86.8666 85.0938 90.5199 39.142
78.0796 100.278 87.2694 85.0175 90.4652 39.161
78.064 100.186 87.5387 84.965 90.4123 39.181
78.0452 100.104 87.7356 84.8803 90.3429 39.2
78.0432 100.054 88.0421 84.8425 90.313 39.226
78.0237 99.9863 88.3657 84.8342 90.2795 39.248
78.0263 99.9494 88.7909 84.8427 90.2612 39.268
78.05 99.9251 89.6805 84.952 90.2534 39.286
78.1022 99.9213 89.9464 85.3066 90.2626 39.305
78.2265 99.9106 89.7555 85.9886 90.2949 39.324
78.4956 99.8903 90.147 86.8366 90.3392 39.345
78.8555 99.8308 91.5009 87.7296 90.3897 39.363
79.2193 99.7304 93.3473 89.1104 90.451 39.382
79.3631 99.6691 94.3844 90.0191 90.4404 39.4
79.5254 99.5318 95.2174 90.9271 90.4215 39.419
79.6625 99.3244 95.8712 91.6777 90.4166 39.437
79.7727 99.1474 96.4218 92.2808 90.3904 39.455
79.8579 98.9903 96.9572 92.777 90.3458 39.474
80.0574 98.8721 97.7302 93.3974 90.298 39.493
80.2622 98.8501 98.1754 93.814 90.2695 39.51
80.4386 98.8303 98.5804 94.1816 90.2466 39.536
80.6298 98.8388 98.9289 94.5975 90.2393 39.556
80.7178 98.8446 99.0926 94.8501 90.2273 39.576
80.8088 98.8583 99.3849 95.1153 90.2573 39.595
80.8815 98.867 99.5696 95.2635 90.2796 39.613
80.8815 98.867 99.5696 95.2635 90.2796 39.633
80.9494 98.878 99.71 95.3675 90.2741 39.65
81.0006 98.8881 99.812 95.439 90.2196 39.67
81.0957 98.9004 99.8753 95.491 90.1789 39.689
81.2046 98.9253 99.9614 95.5668 90.0865 39.708
81.2992 98.9459 99.9959 95.6222 90.041 39.727
81.3561 98.9625 100.022 95.659 90.0072 39.744
81.4018 98.9813 100.045 95.6811 89.9681 39.763
81.444 98.9961 100.067 95.7218 89.9386 39.781
81.489 99.0092 100.09 95.7855 89.9222 39.8
81.5301 99.0203 100.11 95.891 89.9144 39.818
81.5434 98.999 100.128 96.0137 89.9095 39.836
81.5708 97.8545 100.166 96.2893 89.9014 39.856
81.2927 96.2571 100.269 96.6313 89.9021 39.875
80.6202 94.4005 100.824 97.1037 89.9352 39.894
79.6164 90.427 101.447 97.7271 90.0383 39.912
78.6619 84.9325 101.705 98.2419 90.1572 39.931
77.7031 79.2095 101.759 98.6986 90.1607 39.95
77.2534 77.2641 101.658 98.8454 90.0588 39.968
76.9387 75.8804 101.453 98.9296 89.8842 39.987
76.7602 75.3331 101.126 98.9651 89.696 40.005
76.6421 74.8822 100.741 98.9721 89.4497 40.024
76.5642 74.5257 100.412 98.9677 89.2066 40.043
76.5165 73.7976 100.169 98.9522 88.9885 40.062
76.4532 73.0164 99.889 98.9082 88.7354 40.08
76.4157 72.5751 99.7547 98.8842 88.594 40.098
76.3847 72.0047 99.6343 98.8474 88.4583 40.117
76.3834 71.5296 99.5477 98.8136 88.3393 40.136
76.3914 71.187 99.4669 98.7828 88.2368 40.155
76.4118 70.746 99.3987 98.7487 88.1413 40.174
76.4528 70.1431 99.35 98.7097 88.0196 40.195
76.5085 69.9121 99.3441 98.6857 87.9596 40.214
76.6159 69.2411 99.3405 98.6676 87.9126 40.233
76.8622 68.465 99.4128 98.6537 87.8611 40.253
76.9893 68.5288 99.5231 98.6575 87.8487 40.272
77.2097 70.522 99.5886 98.6622 87.8542 40.291
77.5548 74.8776 99.6054 98.6587 87.8694 40.311
77.9737 82.5394 99.6964 98.633 87.8825 40.331
78.1897 88.0158 99.9117 98.5891 87.8827 40.349
78.3404 92.3668 100.133 98.4815 87.8382 40.368
78.4811 94.4509 100.519 98.3087 87.7547 40.387
78.5639 95.6287 100.991 98.1779 87.6514 40.407
78.6215 96.8637 101.653 97.9833 87.5625 40.426
78.6432 97.2267 101.853 97.9286 87.5499 40.443
78.7214 98.2413 102.582 97.8315 87.5179 40.462
78.7492 98.858 103.021 97.793 87.5105 40.48
78.7583 99.3362 103.38 97.7775 87.5111 40.499
78.7679 99.6419 103.616 97.7709 87.514 40.518
78.776 99.8534 103.742 97.7663 87.5176 40.537
78.783 100.012 103.844 97.76 87.5232 40.556
78.7764 100.077 103.891 97.7586 87.5282 40.574
78.773 100.131 103.932 97.7602 87.5378 40.593
78.7707 100.167 103.952 97.7675 87.5485 40.611
78.7733 100.196 103.962 97.771 87.5586 40.629
78.7864 100.207 103.976 97.7726 87.5744 40.648
78.8315 100.229 104.004 97.776 87.5983 40.668
78.8674 100.245 104.015 97.78 87.6144 40.688
78.899 100.26 104.024 97.7799 87.6357 40.706
78.9137 100.266 104.029 97.7641 87.6495 40.724
78.9285 100.28 104.052 97.6937 87.7075 40.744
78.8671 100.401 104.154 96.9499 87.8145 40.764
78.8038 100.586 104.292 95.7747 87.9968 40.783
78.6349 100.855 104.584 93.5308 88.3178 40.802
78.327 101.235 105.034 89.8701 88.5671 40.82
78.0114 101.563 105.376 86.0661 88.6116 40.839
77.743 101.758 105.452 83.8441 88.5553 40.857
77.4668 101.838 105.506 80.5301 88.3751 40.877
77.294 101.868 105.522 80.0202 88.2019 40.896
77.1103 101.879 105.536 79.5855 87.9931 40.914
76.9166 101.887 105.536 79.2175 87.6603 40.935
76.764 101.874 105.525 78.8497 87.2905 40.954
76.6191 101.857 105.449 78.0655 86.8802 40.973
76.5656 101.835 105.399 77.4048 86.5389 40.993
76.5152 101.804 105.353 76.8534 86.1871 41.012
76.4951 101.78 105.314 76.5902 85.8289 41.032
76.492 101.755 105.305 76.5509 85.4812 41.049
76.487 101.722 105.309 76.5012 84.9951 41.067
76.4982 101.698 105.321 76.6132 84.6735 41.086
76.5805 101.687 105.342 78.5298 84.2913 41.105
76.7128 101.682 105.354 84.1356 83.4092 41.125
76.942 101.641 105.41 91.0173 82.1768 41.145
77.0114 101.57 105.436 92.5007 82.0585 41.163
77.0553 101.477 105.448 93.2282 82.1148 41.182
77.0699 101.354 105.455 94.8937 82.3401 41.2
77.0766 101.247 105.465 95.8891 82.8393 41.219
77.0763 101.175 105.502 96.4476 83.3252 41.237
77.0657 101.139 105.587 96.8208 83.7187 41.255
76.8865 101.105 105.809 97.3658 83.9788 41.275
76.4124 101.09 106.058 97.7573 83.9879 41.294
75.9462 101.095 106.352 98.0413 83.5685 41.312
75.6124 101.139 106.631 98.189 82.2119 41.332
75.2738 101.237 106.9 98.2894 79.4515 41.351
74.9712 101.433 107.222 98.315 74.0799 41.369
74.807 101.593 107.343 98.3223 70.5472 41.388
74.6128 101.732 107.465 98.3103 68.2127 41.406
74.4234 101.842 107.575 98.1626 67.4094 41.424
74.2219 101.928 107.654 97.6519 66.8731 41.445
73.9453 102.038 107.716 96.591 65.6803 41.464
73.7678 102.074 107.738 95.9718 64.7187 41.483
73.6148 102.094 107.749 95.2881 63.7371 41.502
73.5017 102.103 107.75 94.4781 62.6317 41.52
73.4139 102.108 107.748 93.3495 61.7593 41.539
73.3111 102.132 107.748 89.8437 60.9011 41.559
73.2561 102.185 107.701 86.1938 60.8095 41.578
73.204 102.217 107.583 80.4273 60.5615 41.596
73.1738 102.253 107.363 76.2342 60.7066 41.615
73.1555 102.284 107.064 75.535 60.7744 41.633
73.1614 102.296 106.666 75.4194 60.934 41.652
73.2129 102.299 106.108 75.4171 61.1656 41.671
73.2488 102.301 105.54 75.4242 61.3523 41.689
73.2539 102.304 105.155 75.4668 61.4984 41.707
73.2298 102.306 103.237 75.9893 63.1668 41.728
73.1798 102.301 100.375 76.9513 65.0013 41.747
73.1166 102.288 95.7449 77.6888 67.0337 41.766
73.2875 101.939 87.7768 78.0867 69.4805 41.785
73.5524 101.187 85.6738 77.9717 70.1042 41.804
73.7043 100.74 85.1949 77.7909 70.3099 41.824
73.9271 99.8349 84.2165 77.6927 70.8071 41.843
74.1159 97.6822 83.6322 77.5773 71.6376 41.862
74.202 94.7951 83.3884 77.4166 72.2532 41.88
74.2263 89.116 83.281 76.8843 72.9792 41.9
74.2658 82.6836 83.2941 76.5223 73.7163 41.919
74.3051 79.038 83.5669 76.4377 74.2661 41.937
74.4452 76.7453 83.9173 76.8346 74.3768 41.956
74.6679 75.7996 83.939 77.2725 74.3326 41.975
74.9719 74.6801 83.9927 78.2431 74.2814 41.995
75.2104 73.7777 84.3284 78.6145 74.2752 42.014
75.2971 73.0865 84.6208 78.8994 74.2533 42.032
75.1479 72.9866 85.2595 79.6853 74.3409 42.051
75.0549 74.8712 85.8062 80.1769 74.476 42.069
74.2461 78.8303 86.4649 80.8142 74.769 42.088
72.6085 81.6947 87.1667 81.769 75.2095 42.106
70.3104 83.3603 87.8922 82.7828 75.6901 42.125
67.9902 84.2821 89.0719 83.8962 76.2405 42.143
65.9623 85.8914 90.1752 85.0308 76.7823 42.162
63.1138 87.9123 91.2301 86.4367 77.6678 42.181
61.9812 88.7335 91.739 87.2385 78.2546 42.199
61.313 89.3301 92.2343 88.0269 78.8284 42.218
60.8401 89.8627 92.7308 88.7428 79.3191 42.237
60.5987 90.4162 93.1113 89.3484 79.7108 42.257
60.6832 90.9669 93.6063 89.8457 80.1463 42.276
61.5986 91.0925 94.0551 90.124 80.3848 42.295
63.5839 91.7051 94.4138 90.292 80.594 42.314
66.5085 92.1147 94.7077 90.4759 80.6997 42.332
69.1195 92.2708 95.0404 90.696 80.8109 42.351
72.3996 92.6045 95.5837 91.0031 80.9496 42.37
74.3719 93.0465 96.0623 91.2898 81.0465 42.389
76.0138 93.5831 96.4829 91.578 81.1306 42.408
77.366 94.1132 96.843 91.8341 81.2446 42.428
78.4446 94.6127 97.1519 92.0552 81.3576 42.452
79.6918 95.2427 97.5144 92.2606 81.4871 42.474
80.527 95.6516 97.8147 92.3529 81.544 42.494
80.9206 95.8657 97.9961 92.374 81.56 42.511
81.2391 96.0565 98.1496 92.4067 81.5602 42.531
81.4722 96.212 98.289 92.4275 81.5462 42.548
81.7068 96.3438 98.4186 92.4488 81.5233 42.566
81.9093 96.4751 98.5277 92.4622 81.4918 42.586
82.1408 96.6551 98.7006 92.5165 81.4517 42.604
82.252 96.7562 98.789 92.5557 81.4391 42.622
82.3385 96.826 98.8811 92.5734 81.4358 42.641
82.4072 96.8789 98.9365 92.6066 81.4313 42.661
82.4515 96.9205 98.9956 92.6461 81.4304 42.68
82.4755 96.9572 99.0375 92.6971 81.4321 42.699
82.4922 97.0054 99.0939 92.7468 81.4369 42.718
82.3239 97.0361 99.1153 92.7537 81.4268 42.736
81.2993 97.0632 99.1203 92.7454 81.4022 42.755
79.4303 97.0896 99.1233 92.7354 81.3413 42.775
73.7866 97.1933 99.1339 92.7339 81.2911 42.795
69.2439 97.1966 99.1663 92.7444 81.2908 42.813
65.4969 97.2029 99.3268 92.7958 81.2839 42.831
63.2244 97.2168 99.3643 92.8747 81.3168 42.855
61.3095 97.2237 99.4212 92.9562 81.3853 42.873
60.642 97.2338 99.4613 92.9997 81.4315 42.892
60.3646 97.2517 99.4957 93.0447 81.4656 42.91
60.3646 97.2517 99.4957 93.0447 81.4656 42.928
60.6788 97.2747 99.5371 93.0734 81.502 42.947
61.875 97.4905 99.5531 93.0784 81.5193 42.965
64.5626 97.6212 99.5826 93.0942 81.5294 42.985
66.9137 97.6421 99.6032 93.1074 81.5353 43.003
69.0071 97.6636 99.6252 93.1216 81.5413 43.022
70.987 97.6829 99.6525 93.1351 81.5531 43.041
72.8568 97.7035 99.6864 93.1577 81.5735 43.061
74.7581 97.7397 99.7556 93.2159 81.6295 43.08
75.757 97.7685 99.8081 93.2612 81.6777 43.1
76.5671 97.8004 99.8549 93.3006 81.7255 43.118
77.2325 97.8295 99.8956 93.3496 81.7856 43.137
77.8261 97.8569 99.9236 93.4155 81.8534 43.156
78.4727 97.8947 99.9762 93.483 81.9428 43.176
78.7987 97.9256 100.012 93.5217 81.9846 43.195
79.0838 97.9583 100.034 93.5645 82.0234 43.213
79.3502 98.012 100.06 93.5951 82.0667 43.233
79.6732 98.1426 100.094 93.647 82.1144 43.252
79.8536 98.2199 100.12 93.671 82.1392 43.271
80.0746 98.2916 100.143 93.6901 82.1577 43.29
80.3227 98.3426 100.154 93.7097 82.1846 43.308
80.6081 98.3768 100.169 93.7249 82.211 43.327
80.9016 98.3952 100.187 93.7317 82.2302 43.345
81.3451 98.4262 100.192 93.7561 82.2575 43.365
81.5949 98.4319 100.193 93.7746 82.2866 43.384
81.8378 98.4325 100.203 93.7905 82.3091 43.402
82.0478 98.432 100.213 93.7905 82.344 43.42
82.2518 98.4335 100.22 93.7884 82.3944 43.44
82.3977 98.4351 100.227 93.7855 82.5099 43.459
82.4761 98.4374 100.265 93.7887 82.8215 43.478
82.4705 98.4406 100.327 93.7988 82.9555 43.499
82.3057 98.4495 100.498 93.8097 82.8768 43.518
81.3312 98.5007 100.966 93.9084 82.2733 43.538
80.5608 98.6005 101.382 93.9848 81.1247 43.556
79.803 98.7972 101.849 94.052 79.0798 43.574
79.2334 99.067 102.31 94.0674 76.1013 43.594
78.8013 99.3089 102.823 94.029 72.2348 43.613
78.3231 99.5482 103.282 93.7421 68.1188 43.632
77.7858 99.8539 103.661 92.2871 66.1326 43.65
77.5856 100.006 103.747 90.7919 65.5123 43.669
77.4305 100.127 103.791 88.8524 65.0483 43.689
77.2881 100.219 103.816 85.9965 64.4189 43.707
77.1544 100.311 103.798 79.6832 64.211 43.727
76.9514 100.366 103.544 77.5382 64.2029 43.744
76.8785 100.383 103.302 77.2315 64.1933 43.762
76.6016 100.433 102.262 76.4861 64.0025 43.782
76.3365 100.441 100.17 76.2207 63.9986 43.802
76.0585 100.329 95.9473 76.1682 64.0037 43.82
75.8717 99.9112 89.6137 75.7912 63.9571 43.839
75.9428 99.1834 84.1437 74.1323 62.9351 43.858
76.1452 98.7155 82.6195 72.9912 61.8278 43.878
76.3883 98.306 81.5531 72.5239 61.293 43.896
76.5889 97.8973 80.8681 72.2738 61.0832 43.916
76.802 97.2184 80.2126 72.0596 61.2137 43.936
76.9288 96.5634 79.6814 71.9644 61.7476 43.956
77.0652 95.6438 79.3028 71.6806 62.3809 43.974
77.1931 94.306 78.449 70.7382 63.1275 43.993
77.2258 92.2577 77.6387 69.8396 63.8372 44.011
77.1035 89.5155 77.1598 69.525 64.716 44.03
76.8643 85.5509 76.5499 68.9658 65.649 44.05
76.622 80.3583 75.8978 68.7266 66.7163 44.069
76.5418 76.728 75.8694 68.8389 67.1408 44.088
76.5789 75.5488 76.2062 69.926 67.1994 44.106
76.6497 74.8168 78.0638 73.039 67.2785 44.125
76.6877 74.6688 79.3843 74.731 67.7872 44.144
76.7146 74.6047 80.6234 76.5969 69.0263 44.162
76.7608 74.5271 82.0064 78.7005 70.6417 44.182
76.833 74.4971 83.3539 80.8839 72.6056 44.201
76.9384 74.6503 85.7352 84.4193 75.6779 44.221
76.984 75.2803 87.5432 86.3028 77.3893 44.241
77.0193 76.6617 89.3352 87.8511 79.0742 44.259
77.0445 79.4953 91.1955 89.1835 80.2753 44.278
77.058 83.1826 92.9127 90.0666 81.0889 44.296
77.0586 86.332 94.2185 90.6813 81.4288 44.321
77.0154 89.9108 95.7532 91.1188 81.6106 44.339
76.9591 92.0244 96.5543 91.2534 81.7491 44.358
76.7103 94.8014 97.6151 91.2357 81.6593 44.376
76.4985 96.1812 98.3738 90.3244 80.974 44.395
76.2419 97.3035 98.8271 89.0776 79.7564 44.413
75.8891 98.2808 98.9708 87.5955 78.2672 44.431
75.5254 99.1805 99.0688 86.2198 76.8853 44.45
75.193 100.181 98.6748 85.0881 75.7644 44.469
75.0499 100.859 96.196 83.2994 74.3863 44.488
75.0374 101.27 94.1774 82.1373 73.7506 44.507
75.034 101.692 93.0699 81.462 73.2502 44.526
75.0355 102.004 92.3767 80.9027 72.8573 44.545
75.0322 102.275 91.7926 80.2234 72.4291 44.565
75.0896 102.432 90.3358 79.4753 71.6542 44.584
75.1182 102.458 89.5295 79.0954 71.1577 44.602
75.092 102.489 89.1417 78.6425 70.5415 44.622
74.8642 102.218 88.7006 78.5535 70.1889 44.641
74.3925 101.178 88.5752 78.7033 70.1399 44.661
73.7522 98.8014 88.601 79.8597 70.2441 44.68
73.3183 96.284 88.8929 81.6757 70.9832 44.698
73.1307 89.5251 89.9988 83.8846 72.8791 44.718
73.2045 87.7657 90.7414 85.3186 74.1649 44.738
73.3608 86.9157 91.4279 86.75 75.5277 44.757
73.6787 86.7288 92.6651 88.2208 77.3317 44.776
73.8713 86.7332 93.6338 89.0746 78.4018 44.794
74.117 86.8933 94.6122 89.8598 79.31 44.815
74.362 87.8028 95.7393 90.6666 79.8951 44.834
74.6232 89.5825 96.8633 91.1779 80.291 44.852
74.8198 91.9941 98.5783 91.8018 80.5926 44.871
74.8692 93.3885 99.6181 92.1109 80.6365 44.891
74.7288 94.4603 100.478 92.3561 80.6561 44.91
74.5027 95.2938 101.127 92.5129 80.6789 44.928
74.2934 96.0171 101.546 92.2397 80.7141 44.946
74.2537 96.5451 101.683 91.2754 80.957 44.965
74.3015 96.998 101.733 89.8254 81.7783 44.984
74.4722 97.1514 101.799 88.882 82.4426 45.003
74.6202 97.2269 101.646 87.9245 83.3341 45.024
74.7791 97.2638 101.125 87.7713 84.1451 45.042
74.928 97.2846 99.9956 89.1833 84.5244 45.061
75.4311 96.9106 98.5135 92.7399 85.0304 45.08
75.6705 96.3122 98.3765 94.0319 85.7076 45.099
75.7463 96.002 98.3613 94.3234 85.9468 45.116
75.814 95.5507 98.3369 94.5807 86.0719 45.134
75.8612 95.3452 98.3126 94.7333 86.089 45.158
75.971 95.2153 98.458 94.839 86.1719 45.177
76.1031 95.2015 98.671 94.858 86.1324 45.196
76.2551 95.1999 98.9531 94.852 85.9679 45.215
76.4345 95.2454 99.4197 94.5574 85.5291 45.234
76.4861 95.3466 99.696 94.1499 85.0236 45.254
76.4544 95.5211 100.04 93.7487 84.2352 45.272
76.335 95.789 100.365 93.4101 83.1908 45.29
76.1082 96.06 100.715 93.1205 81.8847 45.309
75.8638 96.3233 101.083 93.1258 80.6502 45.332
75.1924 96.7698 101.67 93.1925 78.3005 45.352
74.9254 97.0324 101.973 92.8679 78.2045 45.37
74.7288 97.2397 102.186 91.1045 78.1167 45.389
74.6589 97.4303 102.324 89.6546 77.5997 45.408
74.5889 97.5336 102.346 89.0022 76.557 45.426
74.5135 97.5834 102.353 88.2709 75.68 45.444
74.4321 97.6346 102.359 87.4254 74.6742 45.461
74.3498 97.6924 102.357 86.4718 73.726 45.479
74.2953 97.7716 102.31 85.354 72.8161 45.498
74.2615 97.7952 102.097 84.7642 72.0554 45.517
74.219 97.8046 101.402 83.5951 71.1032 45.535
74.197 97.8095 100.776 83.3099 70.6019 45.554
74.168 97.8086 99.911 83.1092 70.3228 45.573
74.1473 97.7664 99.0202 83.032 70.1049 45.591
74.1235 97.6276 98.0218 82.9486 70.1217 45.61
74.1121 97.4101 95.9476 82.915 70.2535 45.629
74.1796 96.7009 92.3863 82.8798 70.6572 45.648
74.3885 95.9032 88.7876 82.2061 71.1581 45.668
74.7295 95.3536 88.0604 80.5735 71.2502 45.687
74.8622 94.1308 87.733 79.5173 71.2494 45.705
74.869 91.4694 87.0221 78.3557 71.2307 45.723
74.8701 87.3945 84.7478 78.197 71.2044 45.743
74.7692 83.3008 84.142 77.1283 71.1739 45.761
74.956 77.8908 81.835 76.4064 71.134 45.78
75.203 75.2319 81.2212 76.2925 71.0846 45.799
75.4973 74.4939 81.0331 76.3083 70.8236 45.818
75.6894 74.2293 81.2934 76.4753 70.4573 45.838
75.7794 74.2535 81.4721 76.9495 70.3155 45.856
75.8382 74.2915 81.8192 77.6201 70.295 45.874
76.0734 74.2515 83.0158 79.1534 70.5599 45.893
76.309 74.0225 83.8951 80.1195 71.1366 45.912
76.5561 73.6749 84.7254 81.0487 71.7108 45.931
76.9003 72.6943 85.6065 82.0315 72.5267 45.949
77.306 71.423 86.6353 83.0438 73.5445 45.969
77.8501 70.9474 88.1358 84.8814 75.2935 45.988
78.245 71.1538 89.2084 86.0497 76.4823 46.006
78.6247 72.5984 90.1779 87.1806 77.6761 46.026
78.9793 74.8835 91.1056 88.3173 78.7714 46.044
79.3033 77.5583 92.0857 89.4384 79.7953 46.064
79.6419 82.642 93.6917 91.09 81.186 46.083
79.7744 85.9713 94.5541 91.9547 82.1702 46.101
79.9467 88.0606 95.1449 92.9741 83.0203 46.119
80.2025 89.5332 95.5918 93.667 83.8825 46.138
80.5941 90.4752 96.1556 94.2358 84.4839 46.158
81.3787 91.822 97.1845 95.0697 85.1923 46.178
81.9461 92.7479 97.8354 95.4946 85.7148 46.196
82.2503 93.1654 98.2148 95.7713 85.8732 46.216
82.9463 93.9719 99.0498 96.0996 86.1264 46.236
83.6252 94.8311 99.7006 96.2964 86.3532 46.255
84.8319 96.3702 100.84 96.8132 86.7717 46.274
85.3994 97.2215 101.569 97.1527 87.0294 46.291
85.8556 97.9216 102.166 97.4284 87.281 46.318
86.3915 98.7775 102.835 97.8244 87.5777 46.339
86.6488 99.4732 103.592 98.0758 87.8345 46.358
86.7074 99.9199 104.106 98.2371 88.012 46.377
86.7232 100.342 104.556 98.5021 88.2397 46.394
86.7336 100.721 105.079 98.7764 88.5126 46.412
86.7075 101.061 105.588 99.0241 88.7623 46.431
86.5548 101.394 106.028 99.2442 88.9688 46.451
85.978 101.872 106.602 99.5594 89.2103 46.471
85.3821 102.126 106.99 99.7427 89.2743 46.491
84.6866 102.379 107.328 99.8893 89.1508 46.511
83.6061 102.683 107.703 100.002 88.4089 46.531
82.9387 102.858 107.878 100.021 87.6837 46.55
82.3554 103.022 108.011 100.023 86.7333 46.569
81.7809 103.175 108.15 100.015 85.5529 46.588
81.1531 103.348 108.32 99.9857 83.9277 46.606
80.3051 103.589 108.558 99.9116 80.9691 46.624
79.8102 103.734 108.703 99.7393 78.849 46.644
79.286 103.91 108.829 99.3852 75.9815 46.662
78.9264 104.046 108.94 98.5353 74.0178 46.682
78.7892 104.121 109.004 97.3134 72.8106 46.7
78.6611 104.193 109.032 95.1891 71.6463 46.72
78.5842 104.222 109.027 93.6266 70.9559 46.744
78.4764 104.251 108.962 90.8579 70.5032 46.763
78.4584 104.274 108.81 88.306 70.4576 46.781
78.4479 104.303 108.349 84.7461 70.5308 46.799
78.4216 104.317 107.707 83.4436 70.566 46.819
78.3422 104.305 107.098 82.3504 70.5426 46.837
78.2736 104.27 106.5 81.7063 70.8402 46.857
78.4161 104.084 104.999 81.6055 73.3453 46.875
78.8501 103.785 103.416 81.9068 75.1074 46.893
79.201 103.366 101.253 82.7613 76.5823 46.911
79.427 102.801 97.0298 83.5354 77.7604 46.93
79.6878 102.374 94.159 83.8164 78.5466 46.948
79.928 102.223 92.3898 82.35 79.3933 46.972
80.2897 101.951 89.8104 81.0585 80.6742 46.991
80.4142 101.668 88.3674 79.3313 81.6287 47.009
80.4938 101.42 86.8636 78.5783 82.5428 47.029
80.6258 100.909 85.2096 78.338 83.774 47.049
80.6886 100.354 84.0868 78.2172 84.5241 47.069
80.7031 99.0993 83.5931 78.0981 85.1381 47.087
80.6158 96.4807 83.2627 78.0568 85.725 47.107
80.3382 91.023 83.1236 78.024 86.6629 47.127
80.2455 86.2965 83.1562 78.0365 87.1736 47.145
80.2417 83.9971 83.1758 78.0865 87.6319 47.164
80.2869 82.3748 82.7806 78.2005 88.0301 47.183
80.4098 79.7828 82.3245 78.3895 88.3265 47.201
80.5895 76.8846 82.2521 78.6057 88.5798 47.22
80.9676 73.4068 82.7383 78.9606 88.7771 47.238
81.2209 71.3098 83.0158 79.2658 88.8243 47.257
81.4878 69.6486 83.3726 79.5961 88.8728 47.275
81.7944 68.0246 83.7043 80.016 88.9253 47.295
81.9961 67.2564 83.854 80.2527 88.966 47.314
82.2881 66.2929 84.1638 80.6634 89.0009 47.334
82.618 65.13 84.9557 81.4975 89.0141 47.352
82.8289 65.0172 85.8194 82.2687 89.0244 47.371
82.9401 66.9122 86.6417 82.9102 89.0395 47.391
82.5217 73.9642 87.4542 83.7327 89.0197 47.41
81.0375 80.4362 88.6672 85.5876 88.7213 47.427
78.1746 84.9061 90.4389 89.6339 88.1174 47.445
73.177 89.046 92.2179 91.8919 88.0428 47.465
71.1018 90.8247 93.3479 92.554 88.0471 47.483
70.1051 92.2716 94.3822 93.1334 88.0541 47.503
69.7454 93.3802 95.4429 93.746 88.0966 47.522
69.6335 94.4068 96.6109 94.2097 88.1702 47.541
72.6208 96.1504 98.2634 95.0186 88.3022 47.56
74.932 97.1818 99.1986 95.5913 88.3883 47.579
77.1472 98.0013 100.037 96.0927 88.4554 47.597
78.8748 98.6371 100.782 96.5984 88.5153 47.617
80.9688 99.4538 101.802 97.2048 88.6597 47.636
81.9152 99.9319 102.366 97.58 88.7814 47.654
82.6224 100.39 102.887 97.9334 88.9064 47.673
83.1018 100.768 103.333 98.2232 89.0219 47.693
83.4403 101.166 103.708 98.4367 89.1212 47.713
83.785 101.746 104.269 98.7395 89.2424 47.732
83.8816 102.095 104.618 98.8938 89.2915 47.751
83.9469 102.385 104.961 99.0054 89.345 47.771
83.9682 102.685 105.2 99.1546 89.3974 47.791
84.0079 103.092 105.476 99.3229 89.4893 47.81
84.0013 103.292 105.61 99.3975 89.5656 47.829
83.9884 103.518 105.73 99.431 89.6461 47.847
83.9713 103.685 105.868 99.4657 89.7249 47.867
83.9306 103.801 105.96 99.4986 89.8046 47.886
83.8872 103.954 106.061 99.5816 89.8283 47.905
83.8569 104.01 106.107 99.6308 89.8347 47.923
83.8171 104.044 106.143 99.6748 89.8409 47.941
83.7733 104.07 106.18 99.7132 89.8471 47.96
83.7305 104.099 106.216 99.7411 89.8523 47.977
83.6896 104.123 106.255 99.7717 89.8618 47.996
83.6593 104.144 106.289 99.7957 89.8704 48.015
83.6172 104.157 106.318 99.8212 89.8835 48.033
83.5476 104.174 106.346 99.8617 89.9078 48.053
83.4996 104.184 106.36 99.8783 89.9206 48.072
83.4487 104.193 106.367 99.8882 89.9327 48.09
83.4057 104.202 106.375 99.8912 89.9471 48.11
83.3514 104.21 106.384 99.8956 89.9591 48.13
83.237 104.222 106.404 99.8808 89.9758 48.15
83.1573 104.228 106.421 99.8103 89.9858 48.17
83.1022 104.23 106.435 99.7268 89.9987 48.189
83.0305 104.224 106.454 99.4456 90.0356 48.21
82.9729 104.225 106.465 99.0131 90.0719 48.229
82.877 104.236 106.539 98.5218 90.0989 48.249
82.7363 104.295 106.782 97.6616 90.1265 48.267
82.5044 104.438 107.09 95.7652 90.2052 48.285
82.1846 104.611 107.377 92.9017 90.3449 48.303
81.7358 104.823 107.51 88.7578 90.5254 48.323
81.3805 104.917 107.609 85.6647 90.5587 48.342
81.1239 104.977 107.671 83.1956 90.5406 48.362
81.0453 105.022 107.694 82.522 90.4954 48.382
80.9362 105.052 107.72 82.4204 90.4022 48.4
80.9362 105.052 107.72 82.4204 90.4022 48.419
80.8575 105.066 107.74 82.4026 90.3193 48.438
80.7832 105.081 107.747 82.371 90.1945 48.458
80.7257 105.098 107.754 82.3187 90.058 48.476
80.5255 105.194 107.773 81.1404 89.9088 48.494
80.4365 105.244 107.794 80.6872 89.8249 48.514
80.3767 105.287 107.809 79.3498 89.7384 48.532
80.3485 105.301 107.832 78.5476 89.6688 48.552
80.3328 105.308 107.844 78.3379 89.5927 48.572
80.3742 105.311 107.846 78.3483 89.5302 48.591
80.6075 105.31 107.767 81.1374 89.4133 48.609
80.9261 105.286 107.66 85.9865 89.2086 48.628
81.0811 105.243 107.569 91.977 88.8325 48.648
81.1746 105.197 107.525 94.9633 88.49 48.668
81.2039 105.182 107.505 95.6137 88.4476 48.687
81.2306 105.172 107.493 96.0773 88.4187 48.706
81.2363 105.162 107.481 96.4153 88.4137 48.725
81.2412 105.147 107.476 96.6211 88.4105 48.743
81.2509 105.134 107.473 96.7889 88.413 48.761
81.2624 105.116 107.468 97.2109 88.4327 48.781
81.2746 105.095 107.464 97.8198 88.4666 48.799
81.2838 105.062 107.454 98.2965 88.5644 48.818
81.2982 104.99 107.43 98.3498 88.6863 48.836
81.3076 104.898 107.354 98.4371 88.7695 48.854
81.3176 104.755 107.173 98.5657 88.8711 48.874
81.3251 104.582 106.837 98.7241 88.9861 48.891
81.2878 104.292 106.134 99.0673 89.1829 48.911
81.0777 104.211 105.268 99.296 89.4106 48.931
80.6891 104.114 103.422 99.4526 89.7086 48.951
80.0838 103.837 101.159 99.5248 89.8148 48.971
79.119 101.402 98.1666 99.4832 89.8651 48.99
78.517 98.0339 96.7165 99.4035 89.8514 49.009
77.8921 93.8687 96.0742 99.2936 89.8156 49.027
77.1972 89.3947 95.542 99.2326 89.7791 49.046
76.4848 85.5291 94.8552 99.189 89.7363 49.064
75.9623 78.9274 94.1948 99.1119 89.6053 49.083
75.7521 74.7253 94.1422 99.0269 89.3752 49.1
75.0671 72.5709 94.2712 98.8824 88.9451 49.125
73.7065 71.9323 94.5727 98.5593 88.3158 49.147
71.576 71.918 95.3556 98.154 87.1751 49.167
71.4281 76.0006 96.0771 97.4514 86.7167 49.186
71.9842 81.8325 96.745 97.1011 86.763 49.205
72.804 87.2643 97.8431 96.7991 87.2146 49.224
73.3133 92.2641 99.0324 96.5658 87.6276 49.243
73.744 95.6527 100.156 96.2529 87.8139 49.262
74.1707 99.2106 101.578 95.9431 87.8074 49.281
74.2581 100.605 102.328 95.4436 87.8001 49.3
74.3875 101.415 102.846 95.0996 87.8363 49.318
74.9128 101.831 102.99 94.885 87.8614 49.336
75.7235 101.931 102.958 94.8658 87.9043 49.353
76.519 101.738 101.895 94.9582 88.0445 49.371
77.234 100.31 101.139 95.0544 88.2864 49.39
77.9394 98.2525 100.335 95.2947 88.5914 49.409
78.5233 96.7147 99.6135 96.3388 88.7751 49.428
78.8912 96.6145 99.4824 97.3971 88.7868 49.446
79.3847 96.7734 98.6274 97.9111 89.579 49.465
88.2316 97.0439 98.2705 97.8615 90.8454 49.484
49.502
49.519
49.543
49.566
49.585
49.609
49.633
49.656
49.675
49.693
49.711
49.728
49.747
49.769
49.788
49.807
49.825
49.843
49.862
49.881
49.9
49.92
49.941
49.959
49.977
49.995
50.015
50.034
50.053
50.071
50.09
50.108
50.127
50.147
50.165
50.184
50.203
50.223
50.242
50.266
50.288
50.311
50.33
50.35
50.369
50.387
50.407
50.426
50.444
50.464
50.486
50.505
50.524
50.542
50.567
50.59
50.611
50.63
50.648
50.666
50.684
50.705
50.725
50.745
50.763
50.782
50.8
50.817
50.835
50.853
50.872
50.891
50.911
50.934
50.951
74.6362 86.635 91.9036 88.6626 93.2255 50.97
74.8599 86.6797 92.5176 88.8387 93.1805 50.989
75.3246 87.0628 93.9917 89.9331 92.787 51.008
75.719 87.6714 95.0321 90.8694 91.6875 51.028
76.1149 88.3975 95.9792 91.7802 89.7667 51.047
76.4979 89.0828 96.2529 93.1345 88.8921 51.066
76.7115 89.7255 96.3856 94.2375 88.7221 51.085
77.0653 90.3102 97.2176 95.4751 88.6893 51.104
77.4054 90.8129 99.5123 96.3298 89.0067 51.122
77.6324 91.8235 101.363 97.2327 89.6476 51.141
77.9085 93.3636 102.881 98.015 90.4435 51.161
78.1499 94.9895 104.145 98.8307 91.268 51.181
78.4666 97.2342 105.354 100.229 92.409 51.2
78.6292 98.3508 105.85 101.471 93.1276 51.219
78.74 99.1373 106.608 102.657 93.8582 51.238
78.74 99.1373 106.608 102.657 93.8582 51.256
78.7943 100.401 108.692 104.159 94.6857 51.276
78.56 101.612 109.989 104.564 95.2034 51.295
78.0067 102.657 110.883 104.72 95.6378 51.314
76.6795 103.439 111.611 104.765 95.9047 51.332
75.1161 103.994 112.066 104.614 95.7365 51.351
73.3612 104.471 112.309 103.004 94.7934 51.37
72.626 104.592 112.359 101.541 93.848 51.388
72.0491 104.62 112.239 100.53 93.0808 51.407
71.6669 104.576 111.404 100.021 92.6022 51.426
71.3572 104.153 110.005 99.9327 92.2935 51.445
71.0886 103.134 108.088 99.7756 91.9495 51.464
70.7898 100.736 105.725 99.4071 91.431 51.482
70.5641 98.8808 103.62 99.0363 90.9939 51.501
70.4161 96.6984 102.187 99.0646 90.7565 51.519
70.1832 95.3509 100.823 99.0868 90.7232 51.539
70.0097 94.6198 99.9896 99.2206 90.728 51.558
71.3535 94.2833 99.6694 100.11 90.7072 51.577
73.1786 94.4136 99.5242 100.399 90.9692 51.596
75.0266 94.6049 99.4468 100.16 91.2394 51.614
51.633
51.652
51.67
51.688
51.707
51.725
51.743
51.761
51.78
51.798
51.816
51.834
51.853
51.872
51.892
51.912
51.93
51.948
51.968
51.986
52.005
52.024
52.042
52.061
52.079
52.097
52.12
52.139
52.158
52.178
52.196
52.215
52.234
52.252
52.271
52.289
52.308
52.326
52.345
52.362
52.382
52.4
52.418
52.438
52.458
52.476
52.495
52.512
52.53
52.549
52.569
52.587
52.606
52.628
52.648
52.668
52.686
52.705
52.724
52.742
52.762
52.781
52.8
52.818
52.838
52.857
52.876
52.895
52.913
52.931
52.949
52.968
52.988
53.007
53.026
53.044
53.062
53.082
53.101
53.12
53.139
