 0.01
 71.46 94.98 101.34 95.19 86.46 0.02
 71.46 94.98 101.34 95.19 86.46 0.03
 71.46 94.98 101.34 95.19 86.46 0.04
 71.46 94.98 101.34 95.19 86.46 0.05
 71.46 94.98 101.34 95.19 86.46 0.06
 71.46 94.98 101.34 95.19 86.46 0.07
 71.46 94.98 101.34 95.19 86.46 0.08
 71.46 94.98 101.34 95.19 86.46 0.09
 71.46 94.98 101.34 95.19 86.46 0.10
 71.46 94.98 101.34 95.19 86.46 0.11
 71.46 94.98 101.34 95.19 86.46 0.12
 71.46 94.98 101.34 95.19 86.46 0.12
 71.46 94.98 101.34 95.19 86.47 0.13
 71.46 94.98 101.34 95.19 86.47 0.14
 71.46 94.98 101.34 95.19 86.47 0.15
 71.46 94.98 101.34 95.19 86.47 0.16
 71.46 94.98 101.34 95.19 86.47 0.17
 71.46 94.98 101.34 95.19 86.47 0.18
 71.47 94.98 101.34 95.19 86.47 0.19
 71.47 94.98 101.34 95.19 86.47 0.20
 71.48 94.98 101.34 95.19 86.47 0.21
 71.48 94.98 101.34 95.19 86.47 0.22
 71.48 94.98 101.34 95.19 86.47 0.23
 71.48 94.98 101.34 95.19 86.47 0.24
 71.48 94.98 101.34 95.19 86.47 0.25
 71.48 94.98 101.33 95.19 86.48 0.26
 71.48 94.98 101.33 95.19 86.48 0.27
 71.48 94.98 101.33 95.19 86.48 0.28
 71.48 94.98 101.33 95.19 86.48 0.29
 71.48 94.98 101.33 95.19 86.48 0.30
 71.49 94.98 101.33 95.19 86.48 0.31
 71.49 94.98 101.33 95.19 86.48 0.32
 71.49 94.97 101.33 95.19 86.48 0.33
 71.49 94.97 101.33 95.19 86.48 0.34
 71.50 94.97 101.32 95.19 86.48 0.35
 71.50 94.97 101.32 95.19 86.48 0.36
 71.50 94.97 101.32 95.19 86.48 0.37
 71.50 94.97 101.32 95.19 86.48 0.38
 71.51 94.96 101.32 95.19 86.48 0.39
 71.52 94.96 101.31 95.19 86.48 0.40
 71.53 94.96 101.30 95.19 86.48 0.41
 71.53 94.96 101.30 95.19 86.48 0.42
 71.53 94.96 101.30 95.19 86.48 0.43
 71.53 94.96 101.30 95.19 86.48 0.44
 71.53 94.96 101.30 95.19 86.48 0.45
 71.54 94.96 101.30 95.19 86.48 0.46
 71.54 94.96 101.30 95.19 86.48 0.47
 71.55 94.95 101.30 95.19 86.48 0.48
 71.56 94.95 101.30 95.19 86.48 0.49
 71.57 94.94 101.30 95.19 86.48 0.50
 71.58 94.94 101.30 95.19 86.47 0.51
 71.58 94.94 101.30 95.19 86.47 0.52
 71.58 94.94 101.30 95.19 86.47 0.53
 71.60 94.94 101.30 95.19 86.47 0.54
 71.60 94.94 101.30 95.19 86.47 0.55
 71.60 94.94 101.30 95.19 86.47 0.56
 71.60 94.94 101.30 95.19 86.47 0.57
 71.60 94.94 101.30 95.19 86.47 0.58
 71.62 94.94 101.30 95.19 86.47 0.59
 71.62 94.94 101.30 95.19 86.47 0.60
 71.62 94.94 101.30 95.19 86.47 0.61
 71.64 94.93 101.30 95.19 86.47 0.62
 71.64 94.93 101.30 95.19 86.47 0.63
 71.65 94.93 101.30 95.19 86.47 0.64
 71.65 94.93 101.30 95.19 86.47 0.65
 71.65 94.93 101.30 95.19 86.47 0.66
 71.66 94.93 101.29 95.19 86.47 0.67
 71.66 94.93 101.29 95.19 86.47 0.68
 71.66 94.93 101.28 95.18 86.47 0.69
 71.67 94.92 101.28 95.18 86.46 0.70
 71.67 94.92 101.28 95.18 86.46 0.71
 71.67 94.92 101.28 95.18 86.46 0.72
 71.68 94.92 101.28 95.18 86.46 0.73
 71.68 94.92 101.28 95.18 86.46 0.74
 71.68 94.92 101.28 95.18 86.46 0.75
 71.68 94.92 101.28 95.18 86.46 0.76
 71.68 94.92 101.28 95.18 86.46 0.77
 71.68 94.92 101.28 95.18 86.46 0.78
 71.68 94.92 101.28 95.18 86.46 0.79
 71.68 94.92 101.28 95.18 86.46 0.80
 71.68 94.92 101.28 95.18 86.46 0.81
 71.69 94.92 101.28 95.18 86.46 0.82
 71.69 94.92 101.28 95.18 86.47 0.83
 71.69 94.92 101.28 95.18 86.47 0.84
 71.69 94.92 101.28 95.18 86.47 0.85
 71.69 94.92 101.28 95.18 86.47 0.86
 71.70 94.92 101.28 95.18 86.47 0.87
 71.71 94.92 101.28 95.18 86.47 0.88
 71.71 94.92 101.28 95.18 86.47 0.89
 71.72 94.92 101.28 95.18 86.47 0.90
 71.72 94.92 101.28 95.18 86.47 0.91
 71.73 94.91 101.28 95.18 86.47 0.92
 71.74 94.91 101.28 95.18 86.47 0.93
 71.75 94.91 101.27 95.18 86.47 0.94
 71.75 94.91 101.27 95.18 86.47 0.95
 71.76 94.91 101.27 95.18 86.47 0.96
 71.78 94.91 101.27 95.18 86.47 0.97
 71.78 94.91 101.27 95.18 86.47 0.98
 71.79 94.90 101.26 95.17 86.48 0.99
 71.80 94.90 101.26 95.17 86.48 1.00
 71.81 94.90 101.25 95.17 86.48 1.01
 71.81 94.90 101.25 95.17 86.48 1.02
 71.82 94.90 101.25 95.17 86.48 1.03
 71.82 94.90 101.25 95.17 86.48 1.04
 71.82 94.89 101.24 95.17 86.48 1.05
 71.83 94.89 101.24 95.17 86.48 1.06
 71.84 94.89 101.23 95.17 86.48 1.07
 71.84 94.88 101.23 95.17 86.48 1.08
 71.84 94.88 101.23 95.17 86.48 1.09
 71.84 94.88 101.22 95.17 86.48 1.10
 71.84 94.88 101.22 95.17 86.48 1.11
 71.84 94.88 101.22 95.17 86.48 1.12
 71.85 94.87 101.22 95.17 86.48 1.13
 71.84 94.87 101.22 95.17 86.48 1.14
 71.84 94.87 101.22 95.17 86.48 1.15
 71.84 94.87 101.22 95.17 86.48 1.16
 71.84 94.87 101.22 95.17 86.48 1.17
 71.84 94.87 101.22 95.17 86.48 1.18
 71.83 94.86 101.22 95.17 86.48 1.19
 71.83 94.86 101.22 95.17 86.49 1.20
 71.83 94.85 101.22 95.17 86.49 1.21
 71.83 94.85 101.22 95.17 86.49 1.22
 71.83 94.85 101.22 95.17 86.49 1.23
 71.83 94.85 101.22 95.17 86.49 1.23
 71.83 94.85 101.22 95.17 86.49 1.24
 71.84 94.84 101.21 95.17 86.50 1.25
 71.83 94.83 101.20 95.16 86.50 1.26
 71.83 94.82 101.19 95.15 86.50 1.27
 71.83 94.81 101.18 95.13 86.50 1.28
 71.83 94.80 101.17 95.12 86.50 1.29
 71.84 94.80 101.15 95.11 86.51 1.30
 71.84 94.79 101.12 95.09 86.51 1.31
 71.84 94.78 101.09 95.07 86.51 1.32
 71.83 94.78 101.08 95.06 86.51 1.33
 71.83 94.77 101.06 95.06 86.51 1.34
 71.83 94.76 101.02 95.02 86.51 1.36
 71.82 94.75 101.01 95.00 86.51 1.37
 71.82 94.75 101.01 95.00 86.51 1.37
 71.82 94.73 100.97 94.97 86.51 1.38
 71.82 94.73 100.97 94.97 86.51 1.39
 71.82 94.72 100.96 94.96 86.50 1.41
 71.82 94.70 100.96 94.94 86.51 1.42
 71.82 94.69 100.95 94.93 86.51 1.43
 71.83 94.67 100.94 94.93 86.51 1.44
 71.83 94.66 100.93 94.92 86.52 1.45
 71.83 94.66 100.93 94.92 86.52 1.46
 71.83 94.66 100.93 94.92 86.52 1.47
 71.84 94.65 100.90 94.90 86.52 1.48
 71.85 94.64 100.88 94.89 86.53 1.49
 71.85 94.64 100.88 94.89 86.53 1.50
 71.85 94.63 100.86 94.89 86.54 1.51
 71.86 94.62 100.84 94.88 86.54 1.52
 71.86 94.62 100.84 94.88 86.54 1.53
 71.85 94.60 100.81 94.88 86.55 1.54
 71.85 94.60 100.81 94.88 86.55 1.55
 71.84 94.59 100.80 94.87 86.56 1.56
 71.84 94.58 100.79 94.87 86.56 1.57
 71.84 94.58 100.78 94.87 86.57 1.58
 71.84 94.58 100.78 94.87 86.57 1.59
 71.84 94.57 100.77 94.87 86.58 1.60
 71.84 94.57 100.77 94.87 86.58 1.61
 71.84 94.57 100.77 94.87 86.58 1.62
 71.84 94.57 100.76 94.87 86.59 1.63
 71.85 94.57 100.76 94.87 86.59 1.64
 71.86 94.56 100.75 94.87 86.60 1.65
 71.87 94.56 100.75 94.87 86.61 1.66
 71.87 94.55 100.75 94.87 86.61 1.67
 71.88 94.55 100.75 94.86 86.63 1.68
 71.88 94.55 100.75 94.86 86.63 1.69
 71.88 94.55 100.75 94.86 86.63 1.70
 71.90 94.54 100.75 94.87 86.65 1.71
 71.90 94.54 100.75 94.87 86.65 1.71
 71.91 94.53 100.75 94.88 86.66 1.72
 71.92 94.53 100.75 94.88 86.69 1.73
 71.92 94.53 100.75 94.89 86.70 1.74
 71.92 94.52 100.75 94.91 86.71 1.75
 71.93 94.52 100.75 94.92 86.72 1.76
 71.92 94.52 100.75 94.93 86.73 1.77
 71.92 94.51 100.75 94.94 86.74 1.78
 71.92 94.51 100.75 94.94 86.74 1.79
 71.92 94.51 100.75 94.94 86.74 1.80
 71.92 94.51 100.75 94.94 86.74 1.81
 71.93 94.50 100.75 94.95 86.75 1.82
 71.93 94.50 100.75 94.95 86.76 1.83
 71.93 94.49 100.75 94.96 86.76 1.84
 71.93 94.49 100.75 94.96 86.76 1.85
 71.92 94.49 100.75 94.96 86.77 1.86
 71.92 94.49 100.75 94.96 86.77 1.87
 71.92 94.49 100.75 94.97 86.78 1.88
 71.92 94.49 100.75 94.97 86.78 1.89
 71.92 94.49 100.75 94.97 86.78 1.90
 71.92 94.49 100.74 94.98 86.79 1.91
 71.92 94.48 100.74 94.99 86.79 1.92
 71.92 94.48 100.74 94.99 86.80 1.93
 71.92 94.48 100.74 95.00 86.80 1.94
 71.92 94.48 100.74 95.00 86.81 1.95
 71.92 94.47 100.74 95.00 86.81 1.96
 71.92 94.47 100.74 95.00 86.82 1.97
 71.92 94.47 100.74 95.01 86.83 1.98
 71.93 94.47 100.74 95.02 86.84 1.99
 71.93 94.47 100.74 95.02 86.84 2.00
 71.94 94.46 100.75 95.02 86.85 2.01
 71.95 94.46 100.76 95.04 86.87 2.02
 71.96 94.46 100.77 95.05 86.87 2.03
 71.96 94.46 100.78 95.06 86.88 2.04
 71.97 94.46 100.78 95.06 86.89 2.05
 71.98 94.46 100.78 95.07 86.90 2.06
 71.98 94.46 100.78 95.08 86.90 2.07
 71.98 94.46 100.79 95.09 86.91 2.08
 71.98 94.46 100.79 95.09 86.91 2.09
 71.98 94.46 100.80 95.10 86.92 2.10
 71.98 94.46 100.80 95.10 86.92 2.11
 71.98 94.46 100.81 95.10 86.92 2.12
 71.99 94.46 100.85 95.10 86.93 2.13
 71.98 94.46 100.86 95.13 86.94 2.14
 71.98 94.46 100.87 95.15 86.95 2.15
 71.97 94.46 100.88 95.16 86.96 2.16
 71.97 94.47 100.89 95.18 86.96 2.17
 71.97 94.47 100.90 95.20 86.96 2.18
 71.97 94.48 100.91 95.22 86.97 2.19
 71.97 94.48 100.92 95.24 86.97 2.20
 71.97 94.48 100.92 95.24 86.98 2.21
 71.98 94.48 100.93 95.25 86.98 2.22
 71.98 94.48 100.94 95.26 86.98 2.23
 71.98 94.48 100.94 95.27 86.99 2.24
 71.97 94.48 100.96 95.28 87.00 2.25
 71.96 94.48 100.96 95.28 87.00 2.26
 71.95 94.48 100.96 95.29 87.00 2.27
 71.94 94.48 100.96 95.29 87.01 2.28
 71.94 94.49 100.97 95.30 87.01 2.29
 71.94 94.49 100.97 95.30 87.01 2.30
 71.95 94.49 100.97 95.30 87.01 2.32
 71.95 94.49 100.97 95.30 87.01 2.33
 71.94 94.49 100.98 95.31 87.02 2.34
 71.95 94.50 100.98 95.31 87.02 2.35
 71.95 94.50 100.98 95.31 87.02 2.36
 71.95 94.50 100.98 95.31 87.02 2.37
 71.95 94.50 100.98 95.31 87.02 2.38
 71.94 94.50 100.98 95.31 87.02 2.39
 71.93 94.50 100.98 95.31 87.03 2.40
 71.93 94.50 100.98 95.31 87.03 2.41
 71.93 94.50 100.98 95.31 87.03 2.42
 71.92 94.50 100.98 95.31 87.03 2.43
 71.92 94.50 100.98 95.31 87.03 2.44
 71.93 94.50 100.98 95.32 87.03 2.45
 71.93 94.50 100.98 95.32 87.03 2.46
 71.93 94.50 100.98 95.32 87.03 2.47
 71.93 94.50 100.98 95.32 87.03 2.48
 71.94 94.50 100.98 95.32 87.03 2.49
 71.93 94.50 100.98 95.32 87.03 2.50
 71.93 94.50 100.99 95.32 87.02 2.51
 71.93 94.50 100.99 95.32 87.02 2.52
 71.91 94.50 100.99 95.32 87.02 2.53
 71.90 94.50 100.99 95.32 87.02 2.55
 71.89 94.50 101.00 95.32 87.02 2.56
 71.88 94.50 101.00 95.33 87.02 2.57
 71.88 94.50 101.00 95.33 87.02 2.58
 71.85 94.50 101.00 95.33 87.02 2.59
 71.83 94.50 101.01 95.33 87.02 2.60
 71.78 94.50 101.01 95.34 87.02 2.61
 71.75 94.50 101.02 95.34 87.02 2.62
 71.72 94.50 101.02 95.35 87.02 2.63
 71.68 94.50 101.02 95.35 87.03 2.64
 71.64 94.50 101.03 95.36 87.03 2.65
 71.60 94.50 101.03 95.36 87.03 2.66
 71.54 94.50 101.03 95.37 87.03 2.67
 71.49 94.50 101.03 95.37 87.03 2.68
 71.42 94.50 101.05 95.36 87.03 2.69
 71.34 94.50 101.07 95.36 87.03 2.70
 71.29 94.51 101.08 95.37 87.02 2.71
 71.25 94.51 101.08 95.38 87.03 2.72
 71.22 94.51 101.09 95.39 87.03 2.73
 71.17 94.51 101.10 95.40 87.03 2.74
 71.15 94.52 101.10 95.41 87.03 2.75
 71.13 94.52 101.10 95.42 87.03 2.76
 71.12 94.52 101.10 95.43 87.03 2.77
 71.10 94.52 101.11 95.44 87.03 2.78
 71.09 94.52 101.11 95.45 87.03 2.79
 71.07 94.52 101.11 95.46 87.03 2.80
 71.06 94.52 101.11 95.46 87.03 2.81
 71.05 94.52 101.11 95.46 87.03 2.82
 71.04 94.52 101.11 95.46 87.03 2.83
 71.02 94.52 101.12 95.46 87.03 2.84
 71.00 94.52 101.12 95.46 87.03 2.85
 70.98 94.52 101.12 95.46 87.03 2.86
 70.95 94.52 101.12 95.47 87.03 2.87
 70.89 94.52 101.12 95.47 87.03 2.88
 70.83 94.52 101.12 95.48 87.03 2.88
 70.75 94.52 101.12 95.48 87.03 2.89
 70.75 94.52 101.12 95.48 87.03 2.90
 70.65 94.52 101.12 95.48 87.03 2.91
 70.53 94.52 101.12 95.48 87.03 2.92
 70.53 94.52 101.12 95.48 87.03 2.93
 70.51 94.52 101.13 95.48 87.03 2.94
 70.13 94.53 101.13 95.49 87.02 2.95
 70.13 94.53 101.13 95.49 87.02 2.96
 69.49 94.52 101.14 95.50 87.02 2.97
 69.20 94.52 101.15 95.50 87.01 2.98
 69.00 94.53 101.15 95.50 87.01 2.99
 68.23 94.53 101.18 95.50 87.00 3.00
 67.90 94.53 101.19 95.50 86.99 3.01
 67.90 94.53 101.19 95.50 86.99 3.02
 67.61 94.54 101.20 95.50 86.98 3.03
 67.00 94.54 101.22 95.50 86.97 3.04
 66.65 94.55 101.24 95.51 86.96 3.05
 66.37 94.56 101.26 95.51 86.96 3.06
 65.73 94.58 101.29 95.51 86.95 3.07
 65.36 94.59 101.30 95.51 86.94 3.08
 65.12 94.60 101.30 95.51 86.93 3.09
 64.44 94.61 101.33 95.51 86.89 3.10
 64.04 94.62 101.34 95.51 86.87 3.11
 63.61 94.63 101.34 95.51 86.86 3.13
 63.16 94.64 101.35 95.51 86.84 3.14
 62.68 94.65 101.35 95.50 86.82 3.15
 61.55 94.67 101.37 95.49 86.77 3.16
 60.97 94.68 101.38 95.49 86.75 3.17
 60.97 94.68 101.38 95.49 86.75 3.18
 59.06 94.69 101.39 95.48 86.69 3.19
 59.06 94.69 101.39 95.48 86.69 3.20
 56.49 94.69 101.41 95.47 86.64 3.21
 54.68 94.69 101.42 95.47 86.59 3.22
 53.80 94.69 101.43 95.46 86.57 3.23
 52.96 94.69 101.43 95.46 86.54 3.24
 52.27 94.69 101.44 95.45 86.52 3.25
 51.75 94.69 101.44 95.45 86.51 3.26
 51.27 94.69 101.45 95.45 86.49 3.27
 51.03 94.69 101.46 95.45 86.49 3.28
 50.90 94.68 101.47 95.45 86.47 3.29
 50.89 94.67 101.47 95.44 86.47 3.30
 50.85 94.66 101.47 95.44 86.46 3.31
 50.84 94.64 101.47 95.44 86.46 3.32
 50.84 94.62 101.48 95.44 86.45 3.33
 50.76 94.54 101.47 95.43 86.43 3.34
 50.76 94.49 101.47 95.42 86.42 3.35
 50.74 94.44 101.47 95.42 86.40 3.36
 50.72 94.37 101.47 95.42 86.38 3.37
 50.71 94.30 101.48 95.41 86.36 3.38
 50.70 94.24 101.48 95.40 86.34 3.39
 50.70 94.18 101.47 95.40 86.32 3.40
 50.69 94.06 101.46 95.38 86.27 3.41
 50.68 94.00 101.46 95.38 86.24 3.42
 50.67 93.94 101.45 95.37 86.21 3.43
 50.64 93.90 101.45 95.37 86.19 3.44
 50.59 93.85 101.44 95.36 86.16 3.45
 50.49 93.76 101.43 95.35 86.10 3.46
 50.44 93.72 101.42 95.35 86.07 3.47
 50.38 93.69 101.42 95.34 86.04 3.48
 50.34 93.65 101.41 95.33 86.01 3.49
 50.30 93.62 101.41 95.33 85.98 3.50
 50.26 93.59 101.40 95.32 85.96 3.51
 50.21 93.52 101.39 95.30 85.90 3.52
 50.18 93.48 101.38 95.30 85.87 3.53
 50.14 93.44 101.38 95.29 85.84 3.54
 50.11 93.41 101.38 95.29 85.82 3.55
 50.08 93.38 101.38 95.28 85.79 3.56
 50.05 93.36 101.37 95.28 85.76 3.57
 50.03 93.34 101.37 95.27 85.73 3.58
 50.01 93.32 101.37 95.27 85.70 3.59
 50.35 93.28 101.37 95.26 85.63 3.60
 50.35 93.28 101.37 95.26 85.63 3.61
 50.68 93.26 101.37 95.25 85.60 3.62
 50.89 93.23 101.37 95.25 85.54 3.63
 51.07 93.22 101.37 95.25 85.51 3.64
 51.47 93.20 101.36 95.25 85.48 3.65
 52.01 93.16 101.36 95.26 85.42 3.66
 52.15 93.15 101.36 95.26 85.39 3.67
 52.21 93.14 101.36 95.27 85.36 3.68
 52.39 93.11 101.36 95.26 85.29 3.69
 52.42 93.09 101.36 95.27 85.26 3.70
 52.47 93.08 101.36 95.27 85.22 3.71
 52.51 93.06 101.36 95.27 85.18 3.72
 52.54 93.04 101.36 95.27 85.14 3.73
 52.57 93.03 101.36 95.27 85.09 3.74
 52.64 93.00 101.37 95.27 85.03 3.75
 52.67 92.98 101.37 95.27 85.01 3.76
 52.69 92.96 101.37 95.27 84.99 3.77
 52.69 92.95 101.38 95.27 84.98 3.78
 52.69 92.93 101.38 95.28 84.96 3.79
 52.70 92.91 101.39 95.29 84.94 3.80
 52.74 92.88 101.40 95.29 84.92 3.81
 52.76 92.87 101.41 95.29 84.90 3.82
 52.78 92.86 101.41 95.29 84.89 3.83
 52.79 92.85 101.42 95.30 84.89 3.84
 52.80 92.84 101.42 95.30 84.88 3.85
 52.80 92.83 101.43 95.31 84.88 3.86
 52.82 92.81 101.44 95.33 84.90 3.87
 52.88 92.81 101.45 95.34 84.90 3.88
 52.93 92.80 101.45 95.35 84.90 3.89
 52.97 92.80 101.45 95.36 84.91 3.90
 53.01 92.79 101.46 95.36 84.91 3.91
 53.04 92.79 101.46 95.37 84.92 3.92
 53.10 92.80 101.47 95.39 84.94 3.93
 53.14 92.81 101.47 95.39 84.95 3.94
 53.17 92.82 101.48 95.40 84.96 3.95
 53.19 92.85 101.48 95.41 84.98 3.96
 53.20 92.87 101.48 95.41 84.99 3.97
 53.21 92.91 101.49 95.41 85.02 3.98
 53.18 92.94 101.49 95.41 85.04 3.99
 53.14 92.96 101.49 95.41 85.05 4.00
 53.06 92.99 101.49 95.41 85.07 4.01
 52.96 93.01 101.49 95.41 85.08 4.02
 52.85 93.03 101.49 95.41 85.09 4.03
 52.73 93.05 101.49 95.41 85.11 4.04
 52.73 93.05 101.49 95.41 85.11 4.05
 52.36 93.08 101.49 95.41 85.15 4.06
 52.20 93.09 101.49 95.41 85.15 4.07
 51.95 93.12 101.49 95.41 85.17 4.08
 51.64 93.14 101.48 95.40 85.20 4.09
 51.58 93.15 101.47 95.39 85.22 4.10
 51.55 93.15 101.46 95.38 85.24 4.11
 51.49 93.17 101.46 95.38 85.26 4.12
 51.40 93.18 101.45 95.37 85.27 4.13
 51.28 93.18 101.44 95.37 85.29 4.14
 51.04 93.20 101.43 95.36 85.33 4.15
 50.95 93.21 101.42 95.36 85.35 4.16
 50.92 93.22 101.42 95.35 85.37 4.17
 50.96 93.23 101.41 95.34 85.40 4.18
 51.02 93.23 101.41 95.33 85.42 4.19
 51.47 93.25 101.39 95.32 85.46 4.20
 51.98 93.26 101.38 95.31 85.48 4.21
 52.53 93.26 101.36 95.30 85.51 4.22
 53.15 93.27 101.35 95.29 85.53 4.23
 53.92 93.27 101.34 95.29 85.56 4.24
 54.59 93.28 101.33 95.29 85.58 4.25
 55.24 93.28 101.32 95.28 85.60 4.26
 56.67 93.28 101.32 95.27 85.65 4.27
 57.38 93.28 101.31 95.27 85.67 4.29
 58.07 93.28 101.30 95.26 85.70 4.30
 58.77 93.27 101.30 95.26 85.72 4.31
 60.20 93.24 101.29 95.26 85.76 4.32
 60.84 93.22 101.28 95.26 85.78 4.33
 61.36 93.19 101.28 95.27 85.80 4.34
 61.77 93.16 101.28 95.26 85.81 4.35
 62.11 93.12 101.28 95.26 85.82 4.36
 62.43 93.09 101.28 95.26 85.84 4.37
 63.07 93.03 101.27 95.26 85.85 4.38
 63.37 93.00 101.27 95.26 85.86 4.39
 63.61 92.98 101.27 95.25 85.86 4.40
 63.83 92.95 101.27 95.25 85.87 4.41
 64.05 92.93 101.27 95.25 85.87 4.42
 64.40 92.88 101.27 95.25 85.89 4.43
 64.54 92.85 101.26 95.25 85.89 4.44
 64.67 92.83 101.26 95.25 85.90 4.45
 64.79 92.80 101.26 95.25 85.90 4.46
 64.92 92.78 101.26 95.25 85.91 4.47
 65.05 92.76 101.26 95.25 85.91 4.48
 65.19 92.74 101.26 95.25 85.92 4.49
 65.39 92.70 101.26 95.25 85.94 4.50
 65.49 92.67 101.26 95.25 85.94 4.51
 65.56 92.64 101.27 95.25 85.96 4.52
 65.62 92.61 101.27 95.25 85.96 4.53
 65.69 92.57 101.27 95.25 85.98 4.54
 65.75 92.48 101.30 95.26 85.98 4.55
 65.79 92.44 101.31 95.26 85.98 4.56
 65.84 92.42 101.32 95.26 85.98 4.57
 65.94 92.40 101.33 95.26 85.99 4.58
 66.09 92.31 101.35 95.26 85.99 4.59
 66.09 92.31 101.35 95.26 85.99 4.60
 66.29 92.03 101.40 95.27 85.98 4.61
 66.34 91.81 101.43 95.27 85.96 4.62
 66.40 91.54 101.45 95.27 85.94 4.63
 66.51 91.24 101.47 95.27 85.92 4.64
 66.62 90.93 101.48 95.26 85.90 4.65
 66.70 90.64 101.49 95.25 85.88 4.66
 66.81 90.30 101.50 95.23 85.85 4.67
 66.95 89.48 101.50 95.17 85.77 4.68
 66.95 89.48 101.50 95.17 85.77 4.69
 67.07 88.48 101.50 95.12 85.67 4.70
 67.07 88.48 101.50 95.12 85.67 4.71
 66.82 86.68 101.50 95.05 85.52 4.72
 66.55 85.47 101.51 95.02 85.43 4.73
 66.21 82.77 101.51 94.98 85.28 4.74
 66.29 81.77 101.50 94.96 85.22 4.75
 66.35 80.55 101.50 94.95 85.16 4.76
 66.36 78.71 101.49 94.92 85.12 4.77
 66.48 76.71 101.33 94.85 85.06 4.78
 66.57 75.82 101.17 94.77 85.03 4.79
 66.63 74.05 101.00 94.65 85.00 4.80
 66.79 72.35 100.80 94.52 84.96 4.81
 66.92 71.06 100.59 94.40 84.93 4.82
 67.03 69.94 100.39 94.28 84.89 4.83
 67.15 69.15 100.19 94.11 84.84 4.84
 67.31 68.36 99.96 93.88 84.77 4.85
 67.65 67.21 99.44 93.41 84.55 4.86
 67.81 66.67 99.17 93.19 84.40 4.87
 67.96 66.21 98.85 92.93 84.25 4.88
 68.06 65.84 98.50 92.62 84.04 4.89
 68.05 65.54 98.22 92.24 83.75 4.90
 68.06 65.00 97.47 91.51 83.29 4.91
 68.10 64.72 96.99 91.11 83.07 4.92
 68.10 64.44 96.51 90.72 82.89 4.93
 68.10 64.13 95.99 90.30 82.68 4.94
 68.10 63.49 95.01 89.42 82.28 4.95
 68.07 63.19 94.52 89.00 82.08 4.96
 68.06 62.82 94.05 88.71 81.87 4.97
 68.03 62.49 93.57 88.36 81.62 4.98
 67.98 62.19 93.08 87.98 81.35 4.99
 67.93 61.86 92.65 87.57 81.10 5.00
 67.90 61.49 92.24 87.27 80.86 5.01
 67.84 60.86 91.47 86.66 80.43 5.02
 67.80 60.57 91.06 86.28 80.32 5.03
 67.76 60.26 90.68 86.03 80.17 5.04
 67.70 59.96 90.31 85.79 80.00 5.05
 67.64 59.66 89.99 85.57 79.87 5.06
 67.54 59.22 89.52 85.11 79.52 5.07
 67.51 59.02 89.33 84.92 79.37 5.08
 67.48 58.83 89.12 84.76 79.27 5.09
 67.45 58.63 88.93 84.64 79.19 5.10
 67.43 58.43 88.76 84.54 79.11 5.11
 67.41 58.21 88.61 84.40 78.99 5.12
 67.39 57.96 88.46 84.28 78.92 5.13
 67.39 57.96 88.46 84.28 78.92 5.14
 67.36 57.63 88.24 84.15 78.84 5.15
 67.35 57.52 88.16 84.10 78.80 5.16
 67.31 57.36 87.99 83.96 78.62 5.17
 67.29 57.28 87.91 83.91 78.51 5.18
 67.29 57.21 87.83 83.87 78.41 5.19
 67.29 57.13 87.77 83.84 78.29 5.20
 67.29 57.07 87.72 83.79 78.17 5.21
 67.29 57.00 87.62 83.74 78.02 5.22
 67.29 56.93 87.57 83.74 77.98 5.24
 67.30 56.84 87.55 83.71 77.97 5.25
 67.31 56.74 87.54 83.69 77.96 5.26
 67.32 56.66 87.53 83.69 77.96 5.27
 67.34 56.55 87.53 83.64 77.94 5.28
 67.35 56.52 87.54 83.63 77.89 5.29
 67.35 56.45 87.56 83.63 77.86 5.30
 67.35 56.32 87.58 83.63 77.87 5.31
 67.35 56.18 87.62 83.63 77.88 5.32
 67.36 56.06 87.66 83.62 77.90 5.33
 67.39 56.00 87.71 83.59 77.93 5.34
 67.42 55.86 87.78 83.55 78.00 5.35
 67.46 55.77 87.85 83.52 78.03 5.36
 67.49 55.71 87.89 83.51 78.04 5.37
 67.53 55.58 88.03 83.50 78.05 5.38
 67.95 55.42 88.22 83.50 78.05 5.39
 68.32 55.41 88.36 83.51 78.03 5.40
 68.64 55.41 88.49 83.51 78.02 5.41
 68.94 55.51 88.62 83.52 78.03 5.42
 69.66 56.14 88.88 83.55 78.03 5.43
 70.22 56.47 89.05 83.56 78.02 5.44
 70.69 56.83 89.17 83.56 78.02 5.45
 71.08 57.11 89.31 83.56 78.02 5.46
 71.42 58.21 89.36 83.56 78.03 5.47
 72.25 61.20 89.43 83.57 78.05 5.48
 72.64 62.89 89.47 83.59 78.07 5.50
 72.96 64.47 89.55 83.61 78.12 5.51
 73.24 66.10 89.70 83.63 78.18 5.52
 73.67 68.94 90.08 83.80 78.35 5.53
 73.67 68.94 90.08 83.80 78.35 5.54
 73.88 70.39 90.54 83.91 78.43 5.55
 74.04 71.68 90.99 84.07 78.52 5.56
 74.22 74.48 91.55 84.46 78.72 5.57
 74.30 76.36 91.86 84.72 78.85 5.58
 74.33 77.53 92.06 84.88 78.93 5.59
 74.33 79.21 92.39 85.16 79.05 5.60
 74.25 81.96 92.99 85.66 79.29 5.61
 74.19 83.02 93.27 85.92 79.43 5.62
 74.13 83.87 93.54 86.18 79.59 5.63
 74.08 84.50 93.77 86.42 79.75 5.64
 74.00 84.99 93.98 86.64 79.91 5.65
 73.83 85.70 94.34 87.02 80.18 5.66
 73.74 85.99 94.52 87.23 80.31 5.67
 73.66 86.26 94.67 87.40 80.45 5.68
 73.58 86.51 94.82 87.59 80.58 5.69
 73.48 86.74 94.95 87.74 80.71 5.70
 73.40 86.93 95.08 87.86 80.81 5.71
 73.34 87.10 95.21 87.96 80.92 5.72
 73.20 87.39 95.42 88.18 81.10 5.73
 73.14 87.53 95.53 88.28 81.18 5.74
 73.10 87.65 95.64 88.37 81.26 5.75
 73.06 87.76 95.75 88.45 81.34 5.76
 73.02 87.86 95.85 88.53 81.41 5.77
 72.98 87.97 95.94 88.62 81.46 5.78
 72.92 88.09 96.02 88.71 81.52 5.79
 72.81 88.32 96.18 88.90 81.68 5.80
 72.74 88.42 96.27 88.98 81.75 5.81
 72.69 88.52 96.36 89.05 81.81 5.82
 72.62 88.61 96.44 89.13 81.87 5.83
 72.48 88.79 96.57 89.25 81.98 5.84
 72.41 88.87 96.64 89.33 82.03 5.85
 72.34 88.93 96.70 89.41 82.10 5.86
 72.26 88.99 96.76 89.49 82.15 5.87
 72.18 89.05 96.81 89.57 82.20 5.88
 72.10 89.10 96.88 89.65 82.25 5.89
 71.94 89.13 97.02 89.79 82.36 5.90
 71.86 89.14 97.07 89.84 82.40 5.91
 71.77 89.13 97.12 89.89 82.44 5.92
 71.68 89.12 97.16 89.91 82.48 5.93
 71.59 89.10 97.20 89.95 82.51 5.94
 71.50 89.06 97.23 89.98 82.54 5.95
 71.13 88.91 97.30 90.14 82.60 5.96
 70.87 88.95 97.35 90.24 82.66 5.97
 70.53 88.94 97.48 90.40 82.72 5.98
 70.12 88.93 97.61 90.54 82.79 5.99
 69.68 88.89 97.77 90.65 82.86 6.00
 69.41 88.97 97.86 90.71 82.91 6.01
 68.84 89.24 97.93 90.74 82.98 6.02
 68.63 89.37 97.93 90.74 83.00 6.03
 68.42 89.47 97.93 90.75 83.00 6.04
 68.21 89.54 97.93 90.75 83.01 6.05
 68.00 89.60 97.91 90.75 83.00 6.06
 67.78 89.65 97.88 90.73 83.00 6.07
 67.31 89.72 97.73 90.68 82.97 6.08
 67.31 89.72 97.73 90.68 82.97 6.09
 66.94 89.77 97.47 90.56 82.93 6.10
 66.78 89.79 97.29 90.48 82.91 6.11
 66.65 89.80 97.11 90.41 82.89 6.12
 66.56 89.81 96.94 90.31 82.86 6.13
 66.50 89.82 96.66 90.21 82.83 6.14
 66.35 89.85 95.71 89.94 82.75 6.15
 66.23 89.89 95.12 89.81 82.71 6.16
 66.07 89.92 94.39 89.64 82.66 6.17
 65.85 89.92 93.53 89.36 82.60 6.18
 65.64 89.92 92.61 88.87 82.54 6.19
 65.39 89.91 91.55 88.24 82.49 6.20
 64.89 89.88 89.42 87.05 82.37 6.21
 64.63 89.88 88.20 86.47 82.32 6.22
 64.63 89.88 88.20 86.47 82.32 6.23
 64.63 89.88 88.20 86.47 82.32 6.24
 64.26 89.85 87.33 85.15 82.24 6.25
 64.26 89.85 87.33 85.15 82.24 6.26
 64.26 89.85 87.33 85.15 82.24 6.27
 63.93 89.84 85.94 83.68 82.18 6.28
 63.68 89.82 85.97 81.53 82.10 6.29
 63.48 89.80 86.05 80.09 81.98 6.30
 63.38 89.77 86.09 79.24 81.89 6.31
 63.28 89.72 86.12 78.61 81.78 6.32
 63.19 89.62 86.15 78.05 81.65 6.33
 62.95 89.34 86.19 77.47 81.39 6.34
 62.81 89.08 86.21 77.50 81.24 6.35
 62.70 88.76 86.23 77.52 81.06 6.36
 62.61 88.35 86.25 77.56 80.87 6.37
 62.61 88.35 86.25 77.56 80.87 6.38
 62.49 87.15 86.27 77.64 80.43 6.39
 62.43 86.86 86.28 76.93 80.30 6.40
 62.43 86.86 86.28 76.93 80.30 6.41
 62.39 86.48 86.29 76.39 80.13 6.42
 62.39 86.48 86.29 76.39 80.13 6.43
 62.39 86.48 86.29 76.39 80.13 6.44
 62.36 86.01 86.64 73.95 79.96 6.45
 62.36 86.01 86.64 73.95 79.96 6.46
 62.33 85.27 87.20 72.43 79.70 6.47
 62.33 84.88 87.39 71.90 79.47 6.48
 62.33 84.88 87.39 71.90 79.47 6.49
 62.35 84.81 87.47 70.77 79.35 6.50
 62.36 84.78 87.49 70.33 79.29 6.51
 62.36 84.78 87.49 70.33 79.29 6.52
 62.37 84.60 87.54 69.57 79.09 6.53
 62.37 84.60 87.54 69.57 79.09 6.55
 62.38 84.30 87.50 69.25 78.96 6.56
 62.38 84.30 87.50 69.25 78.96 6.57
 62.39 84.12 87.42 69.16 78.90 6.58
 62.39 84.03 87.39 69.12 78.87 6.59
 62.39 83.92 87.35 69.12 78.82 6.60
 62.39 83.81 87.31 69.12 78.80 6.61
 62.38 83.56 87.25 68.90 78.70 6.62
 62.38 83.46 87.22 68.81 78.65 6.63
 62.39 83.35 87.15 68.78 78.61 6.64
 62.40 83.26 87.11 68.19 78.56 6.65
 62.42 83.14 87.08 67.30 78.53 6.66
 62.47 82.97 87.04 66.60 78.50 6.67
 62.49 82.94 87.03 66.59 78.49 6.68
 62.54 82.92 87.01 66.58 78.48 6.69
 62.62 82.89 87.00 66.64 78.45 6.70
 62.62 82.89 87.00 66.64 78.45 6.71
 62.97 82.79 87.04 67.31 78.39 6.72
 62.97 82.79 87.04 67.31 78.39 6.73
 63.12 82.74 87.05 67.92 78.36 6.74
 63.48 82.59 87.07 70.09 78.28 6.75
 63.65 82.53 87.09 71.19 78.28 6.76
 63.82 82.49 86.62 71.67 78.30 6.77
 64.13 82.48 83.50 72.66 78.34 6.78
 64.13 82.48 83.50 72.66 78.34 6.79
 64.37 82.46 82.49 73.62 78.34 6.80
 64.70 82.29 82.18 74.81 78.26 6.81
 65.09 81.90 82.17 76.06 78.11 6.82
 65.29 81.62 82.15 76.51 78.03 6.83
 65.62 81.28 82.33 77.18 77.83 6.84
 65.77 81.18 82.59 77.56 77.74 6.85
 65.92 81.15 83.03 78.15 77.69 6.86
 66.05 81.16 83.54 78.77 77.64 6.87
 66.19 81.20 84.02 79.35 77.61 6.88
 66.29 81.31 84.47 79.80 77.54 6.89
 66.55 81.77 85.26 80.54 77.43 6.90
 66.55 81.77 85.26 80.54 77.43 6.91
 66.55 81.77 85.26 80.54 77.43 6.92
 66.71 82.16 85.70 80.95 77.42 6.93
 66.77 82.35 85.87 81.12 77.42 6.94
 66.77 82.35 85.87 81.12 77.42 6.95
 66.91 82.75 86.20 81.50 77.43 6.96
 66.98 82.95 86.38 81.72 77.44 6.97
 67.10 83.28 86.70 82.10 77.49 6.98
 67.18 83.54 86.96 82.39 77.54 6.99
 67.18 83.54 86.96 82.39 77.54 7.00
 67.23 83.70 87.11 82.57 77.58 7.01
 67.27 83.86 87.31 82.81 77.65 7.02
 67.33 84.05 87.54 83.09 77.73 7.03
 67.38 84.17 87.75 83.25 77.79 7.04
 67.40 84.27 87.86 83.33 77.83 7.05
 67.42 84.39 88.00 83.47 77.89 7.06
 67.43 84.55 88.13 83.61 77.95 7.07
 67.44 84.73 88.26 83.72 78.01 7.08
 67.44 84.89 88.41 83.78 78.06 7.09
 67.43 85.04 88.53 83.85 78.10 7.09
 67.43 85.21 88.75 84.07 78.20 7.10
 67.43 85.21 88.75 84.07 78.20 7.11
 67.42 85.31 88.88 84.22 78.27 7.12
 67.42 85.37 88.94 84.28 78.30 7.13
 67.40 85.46 89.02 84.39 78.34 7.14
 67.39 85.57 89.10 84.50 78.38 7.15
 67.37 85.69 89.17 84.55 78.42 7.16
 67.35 85.79 89.24 84.63 78.45 7.17
 67.33 85.90 89.33 84.75 78.50 7.18
 67.33 85.90 89.33 84.75 78.50 7.19
 67.31 85.93 89.37 84.78 78.51 7.20
 67.29 85.98 89.46 84.84 78.55 7.21
 67.26 86.00 89.49 84.89 78.58 7.22
 67.23 86.05 89.52 84.96 78.61 7.23
 67.20 86.10 89.56 85.03 78.64 7.24
 67.16 86.17 89.60 85.12 78.68 7.25
 67.14 86.18 89.62 85.16 78.70 7.26
 67.12 86.20 89.64 85.22 78.72 7.27
 67.10 86.22 89.68 85.27 78.75 7.28
 67.08 86.23 89.74 85.30 78.78 7.29
 67.07 86.24 89.76 85.31 78.79 7.30
 67.06 86.25 89.78 85.33 78.81 7.31
 67.06 86.25 89.78 85.33 78.81 7.32
 67.04 86.28 89.81 85.35 78.84 7.33
 67.03 86.29 89.82 85.36 78.85 7.34
 67.02 86.30 89.86 85.39 78.87 7.35
 67.01 86.31 89.88 85.42 78.89 7.36
 66.99 86.32 89.90 85.44 78.92 7.37
 66.99 86.32 89.93 85.46 78.95 7.38
 66.97 86.33 89.96 85.50 78.98 7.39
 66.97 86.33 89.96 85.50 78.98 7.40
 66.97 86.34 89.97 85.51 78.99 7.41
 66.95 86.35 90.00 85.54 79.01 7.42
 66.95 86.35 90.00 85.56 79.01 7.43
 66.95 86.35 90.00 85.56 79.01 7.44
 66.93 86.36 90.03 85.60 79.04 7.45
 66.93 86.36 90.03 85.61 79.05 7.46
 66.91 86.38 90.08 85.62 79.08 7.47
 66.90 86.42 90.13 85.59 79.09 7.48
 66.90 86.42 90.13 85.59 79.09 7.49
 66.87 86.46 90.18 85.53 79.10 7.50
 66.83 86.55 90.26 85.38 79.09 7.51
 66.80 86.61 90.30 85.24 79.08 7.52
 66.76 86.68 90.34 85.09 79.07 7.53
 66.70 86.75 90.37 84.92 79.06 7.54
 66.70 86.75 90.37 84.92 79.06 7.55
 66.62 86.83 90.39 84.58 79.04 7.56
 66.57 86.87 90.40 84.36 79.03 7.57
 66.57 86.87 90.40 84.36 79.03 7.58
 66.47 87.00 90.45 83.76 79.01 7.59
 66.42 87.07 90.47 83.45 79.01 7.60
 66.42 87.07 90.47 83.45 79.01 7.62
 66.20 87.40 90.60 81.97 79.01 7.63
 66.20 87.40 90.60 81.97 79.01 7.64
 66.12 87.60 90.68 80.56 79.01 7.65
 66.08 87.71 90.75 78.79 79.02 7.66
 66.00 87.92 90.85 76.33 79.02 7.67
 65.94 88.11 90.91 74.01 79.02 7.68
 65.88 88.21 90.95 73.27 79.02 7.69
 65.81 88.33 90.95 73.18 79.00 7.70
 65.76 88.39 90.95 73.24 78.98 7.71
 65.70 88.45 90.94 73.67 78.94 7.72
 65.61 88.52 90.89 75.23 78.84 7.73
 65.56 88.55 90.85 76.79 78.75 7.74
 65.52 88.58 90.73 78.28 78.54 7.75
 65.48 88.60 90.45 79.04 78.27 7.76
 65.45 88.61 90.12 79.31 77.90 7.77
 65.44 88.62 89.81 79.37 77.45 7.78
 65.43 88.64 89.53 79.40 77.06 7.79
 65.42 88.65 89.26 79.42 76.65 7.80
 65.41 88.66 88.76 79.43 75.88 7.81
 65.41 88.67 88.52 79.36 75.58 7.82
 65.43 88.69 88.30 79.20 75.25 7.83
 65.47 88.71 88.05 79.03 74.97 7.84
 65.50 88.75 87.78 78.85 74.69 7.85
 65.53 88.80 87.45 78.71 74.42 7.86
 65.53 88.80 87.45 78.71 74.42 7.87
 65.61 88.97 86.66 78.22 73.88 7.88
 65.61 88.97 86.66 78.22 73.88 7.89
 65.70 89.09 86.16 77.97 73.45 7.90
 65.73 89.16 85.92 77.74 73.22 7.91
 65.77 89.24 85.56 77.30 72.88 7.92
 65.84 89.31 85.14 76.86 72.56 7.93
 65.86 89.33 84.86 76.61 72.44 7.94
 65.88 89.37 84.61 76.25 72.27 7.95
 65.90 89.40 84.38 75.94 72.12 7.96
 65.94 89.43 84.15 75.68 72.00 7.97
 65.97 89.45 83.85 75.39 71.90 7.98
 66.01 89.48 83.63 75.07 71.81 7.99
 66.11 89.50 83.23 74.56 71.66 8.00
 66.18 89.50 83.05 74.39 71.60 8.01
 66.24 89.50 82.88 74.21 71.52 8.02
 66.32 89.50 82.69 73.98 71.44 8.03
 66.37 89.50 82.61 73.89 71.40 8.03
 66.44 89.50 82.52 73.76 71.36 8.04
 66.48 89.50 82.46 73.66 71.33 8.06
 66.52 89.49 82.41 73.58 71.31 8.07
 66.56 89.49 82.37 73.52 71.29 8.07
 66.60 89.49 82.34 73.48 71.29 8.08
 66.60 89.49 82.34 73.48 71.29 8.09
 66.63 89.48 82.32 73.45 71.28 8.10
 66.63 89.48 82.32 73.45 71.28 8.11
 66.69 89.48 82.30 73.42 71.27 8.12
 66.75 89.47 82.30 73.42 71.26 8.13
 66.87 89.44 82.30 73.41 71.33 8.14
 66.97 89.42 82.30 73.41 71.44 8.15
 67.04 89.38 82.33 73.42 71.66 8.16
 67.19 89.31 82.40 73.42 71.96 8.17
 67.39 89.17 82.56 73.46 72.35 8.18
 67.54 89.05 82.69 73.59 72.59 8.19
 67.74 88.86 82.89 73.73 72.91 8.20
 67.89 88.67 83.15 73.84 73.21 8.21
 68.03 88.48 83.41 74.06 73.50 8.22
 68.17 88.21 83.76 74.53 73.91 8.23
 68.23 88.09 83.94 74.87 74.13 8.24
 68.35 87.94 84.26 74.97 74.44 8.25
 68.44 87.84 84.71 74.84 74.79 8.26
 68.53 87.79 85.14 74.39 75.09 8.27
 68.61 87.77 85.77 73.89 75.30 8.28
 68.65 87.77 87.12 73.65 75.72 8.29
 68.65 87.77 87.12 73.65 75.72 8.30
 68.69 87.70 87.68 73.73 76.09 8.31
 68.70 87.68 87.79 73.89 76.21 8.32
 68.70 87.68 87.79 73.89 76.21 8.33
 68.71 87.61 87.97 74.95 76.40 8.34
 68.71 87.61 87.97 74.95 76.40 8.35
 68.70 87.49 88.23 76.75 76.53 8.36
 68.70 87.49 88.23 76.75 76.53 8.37
 68.70 87.42 88.42 78.03 76.58 8.38
 68.71 87.40 88.66 78.45 76.61 8.39
 68.71 87.40 88.66 78.45 76.61 8.40
 68.71 87.40 88.66 78.45 76.61 8.41
 68.72 87.37 89.42 79.08 76.71 8.42
 68.72 87.37 89.55 79.41 76.73 8.43
 68.73 87.38 89.77 80.04 76.76 8.44
 68.74 87.41 90.10 80.37 76.81 8.45
 68.74 87.45 90.44 80.61 76.87 8.46
 68.75 87.54 90.79 81.27 76.93 8.47
 68.75 87.61 90.93 81.58 76.96 8.48
 68.75 87.61 90.93 81.58 76.96 8.49
 68.76 87.75 91.10 81.96 77.01 8.50
 68.76 87.81 91.18 82.12 77.04 8.51
 68.76 87.88 91.28 82.28 77.08 8.52
 68.76 87.95 91.38 82.42 77.13 8.53
 68.76 87.95 91.38 82.42 77.13 8.54
 68.76 88.02 91.48 82.56 77.17 8.55
 68.76 88.07 91.56 82.67 77.22 8.56
 68.76 88.07 91.56 82.67 77.22 8.57
 68.77 88.11 91.61 82.74 77.25 8.58
 68.77 88.11 91.61 82.74 77.25 8.59
 68.77 88.15 91.69 82.86 77.29 8.60
 68.77 88.18 91.75 82.95 77.33 8.61
 68.77 88.21 91.80 83.04 77.35 8.62
 68.77 88.22 91.83 83.09 77.37 8.63
 68.77 88.22 91.83 83.09 77.37 8.64
 68.78 88.24 91.88 83.19 77.40 8.65
 68.78 88.25 91.90 83.23 77.42 8.66
 68.78 88.27 91.92 83.31 77.46 8.67
 68.80 88.27 91.94 83.35 77.49 8.68
 68.80 88.27 91.94 83.35 77.49 8.69
 68.82 88.29 91.97 83.40 77.54 8.70
 68.83 88.30 91.99 83.44 77.55 8.71
 68.84 88.31 92.02 83.49 77.58 8.72
 68.86 88.33 92.05 83.54 77.62 8.73
 68.87 88.34 92.07 83.57 77.64 8.74
 68.89 88.34 92.10 83.61 77.67 8.75
 68.90 88.35 92.12 83.66 77.70 8.76
 68.90 88.36 92.15 83.70 77.74 8.77
 68.90 88.36 92.15 83.70 77.74 8.78
 68.91 88.36 92.16 83.72 77.76 8.79
 68.91 88.36 92.16 83.72 77.76 8.80
 68.91 88.37 92.19 83.74 77.78 8.81
 68.92 88.38 92.21 83.77 77.81 8.82
 68.92 88.38 92.27 83.81 77.84 8.83
 68.93 88.39 92.29 83.84 77.86 8.84
 68.93 88.39 92.31 83.88 77.89 8.85
 68.92 88.40 92.33 83.91 77.91 8.86
 68.92 88.40 92.34 83.94 77.94 8.87
 68.92 88.40 92.35 83.97 77.96 8.88
 68.92 88.40 92.37 84.00 77.98 8.89
 68.93 88.41 92.38 84.02 77.99 8.90
 68.92 88.40 92.40 84.07 78.01 8.91
 68.93 88.40 92.40 84.10 78.01 8.92
 68.93 88.40 92.40 84.10 78.01 8.93
 68.93 88.39 92.43 84.15 77.99 8.94
 68.94 88.38 92.44 84.19 77.96 8.95
 68.95 88.35 92.49 84.30 77.82 8.96
 68.96 88.33 92.51 84.36 77.70 8.97
 68.95 88.28 92.54 84.47 77.47 8.98
 68.95 88.28 92.54 84.47 77.47 8.99
 68.97 88.22 92.59 84.67 76.92 9.00
 68.98 88.20 92.60 84.73 76.74 9.01
 68.98 88.20 92.60 84.73 76.74 9.02
 69.02 88.16 92.69 84.94 76.26 9.03
 69.05 88.13 92.74 85.07 76.04 9.04
 69.05 88.13 92.74 85.07 76.04 9.05
 69.05 88.09 92.85 85.30 75.67 9.06
 69.07 88.08 92.90 85.39 75.54 9.07
 69.07 88.08 92.90 85.39 75.54 9.08
 69.10 88.06 93.05 85.58 75.29 9.09
 69.13 88.06 93.14 85.70 75.16 9.10
 69.17 88.04 93.32 85.92 74.88 9.11
 69.17 88.04 93.32 85.92 74.88 9.12
 69.21 88.03 93.52 86.08 74.50 9.13
 69.24 88.02 93.66 86.21 73.87 9.14
 69.27 88.01 93.88 86.33 74.33 9.15
 69.27 88.01 93.88 86.33 74.33 9.16
 69.30 88.03 94.03 86.44 74.31 9.17
 69.34 88.09 94.35 86.58 73.89 9.18
 69.38 88.17 94.66 86.75 73.13 9.19
 69.38 88.20 94.78 86.79 73.44 9.20
 69.38 88.22 94.89 86.80 73.64 9.21
 69.37 88.24 94.97 86.77 73.73 9.22
 69.37 88.24 94.97 86.77 73.73 9.23
 69.36 88.25 95.03 86.70 73.73 9.24
 69.36 88.25 95.03 86.70 73.73 9.25
 69.34 88.26 95.08 86.63 73.66 9.26
 69.28 88.28 95.22 86.64 72.99 9.27
 69.23 88.31 95.37 86.64 71.70 9.28
 69.23 88.31 95.37 86.64 71.70 9.29
 69.22 88.33 95.53 86.71 70.41 9.30
 69.31 88.32 95.82 86.85 69.07 9.31
 69.37 88.31 95.95 86.91 68.63 9.32
 69.42 88.29 96.05 86.94 68.28 9.33
 69.47 88.29 96.15 86.96 68.00 9.34
 69.51 88.28 96.21 87.05 67.78 9.35
 69.58 88.26 96.32 87.26 67.40 9.36
 69.59 88.25 96.35 87.56 67.23 9.37
 69.60 88.24 96.38 87.84 67.09 9.38
 69.61 88.23 96.42 88.07 66.97 9.39
 69.62 88.22 96.46 88.23 66.86 9.39
 69.60 88.20 96.49 88.37 66.83 9.40
 69.57 88.18 96.52 88.54 66.78 9.41
 69.52 88.13 96.58 88.87 66.66 9.42
 69.52 88.13 96.58 88.87 66.66 9.43
 69.49 88.11 96.63 89.01 66.61 9.44
 69.47 88.09 96.67 89.10 66.55 9.45
 69.44 88.07 96.71 89.20 66.51 9.46
 69.40 88.03 96.78 89.33 66.41 9.47
 69.37 88.02 96.81 89.39 66.34 9.48
 69.37 88.02 96.81 89.39 66.34 9.49
 69.35 87.98 96.85 89.46 66.25 9.50
 69.34 87.97 96.87 89.47 66.23 9.51
 69.31 87.96 96.90 89.49 66.18 9.52
 69.29 87.94 96.91 89.50 66.15 9.53
 69.27 87.91 96.92 89.51 66.13 9.54
 69.23 87.86 96.94 89.53 66.09 9.55
 69.21 87.82 96.96 89.55 66.07 9.56
 69.19 87.79 96.97 89.56 66.06 9.57
 69.18 87.77 96.98 89.57 66.04 9.58
 69.18 87.75 96.99 89.59 66.02 9.59
 69.17 87.73 97.00 89.62 66.00 9.60
 69.17 87.69 97.01 89.70 65.97 9.61
 69.17 87.69 97.02 89.71 65.95 9.62
 69.17 87.68 97.03 89.71 65.94 9.63
 69.17 87.68 97.04 89.71 65.94 9.64
 69.16 87.69 97.06 89.72 65.93 9.65
 69.14 87.71 97.11 89.71 65.92 9.66
 69.16 87.73 97.14 89.71 65.91 9.67
 69.16 87.73 97.14 89.71 65.91 9.68
 69.16 87.73 97.14 89.71 65.91 9.69
 69.22 87.79 97.19 89.75 65.88 9.70
 69.22 87.79 97.19 89.75 65.88 9.71
 69.23 87.87 97.23 89.77 65.98 9.73
 69.22 87.89 97.24 89.78 66.01 9.74
 69.13 87.93 97.27 89.78 66.08 9.75
 68.97 87.96 97.30 89.79 66.10 9.76
 68.80 88.00 97.33 89.80 66.09 9.77
 68.57 88.05 97.38 89.82 65.95 9.78
 68.45 88.06 97.40 89.84 65.91 9.79
 68.28 88.08 97.43 89.87 65.91 9.80
 68.28 88.08 97.43 89.87 65.91 9.81
 67.84 88.15 97.47 89.90 66.07 9.82
 67.84 88.15 97.47 89.90 66.07 9.83
 67.61 88.22 97.48 89.93 66.57 9.84
 67.48 88.26 97.49 89.94 67.00 9.85
 67.24 88.36 97.52 89.99 68.57 9.86
 67.13 88.43 97.54 90.02 69.47 9.87
 67.06 88.50 97.55 90.05 70.40 9.88
 66.99 88.55 97.57 90.09 71.35 9.89
 66.95 88.60 97.59 90.14 72.12 9.90
 66.91 88.65 97.62 90.18 72.89 9.91
 66.89 88.71 97.64 90.22 73.50 9.92
 66.87 88.79 97.67 90.26 74.11 9.93
 66.87 88.79 97.67 90.26 74.11 9.94
 66.87 88.90 97.71 90.31 75.02 9.95
 66.86 88.95 97.73 90.34 75.45 9.96
 66.86 88.95 97.73 90.34 75.45 9.97
 66.85 89.01 97.75 90.41 75.97 9.98
 66.84 89.13 97.79 90.47 76.66 9.99
 66.84 89.28 97.83 90.52 77.34 10.00
 66.84 89.28 97.83 90.52 77.34 10.01
 66.85 89.35 97.84 90.54 77.63 10.02
 66.87 89.42 97.85 90.57 77.92 10.03
 66.94 89.50 97.86 90.59 78.33 10.04
 66.98 89.53 97.86 90.60 78.49 10.05
 67.05 89.58 97.86 90.63 78.70 10.06
 67.12 89.64 97.86 90.66 78.96 10.07
 67.16 89.67 97.86 90.68 79.09 10.08
 67.21 89.70 97.86 90.70 79.35 10.09
 67.26 89.73 97.87 90.72 79.58 10.10
 67.26 89.73 97.87 90.72 79.58 10.11
 67.43 89.79 97.87 90.77 79.93 10.12
 67.51 89.82 97.86 90.80 80.05 10.13
 67.61 89.85 97.86 90.82 80.19 10.14
 67.72 89.87 97.86 90.85 80.31 10.15
 67.83 89.89 97.86 90.87 80.44 10.15
 67.94 89.92 97.86 90.90 80.54 10.16
 68.07 89.95 97.85 90.93 80.65 10.17
 68.19 89.97 97.85 90.96 80.76 10.18
 68.26 89.98 97.85 90.97 80.83 10.19
 68.35 90.00 97.84 90.99 80.92 10.20
 68.43 90.03 97.84 91.02 80.99 10.21
 68.51 90.05 97.84 91.04 81.06 10.22
 68.58 90.08 97.83 91.06 81.13 10.23
 68.65 90.10 97.83 91.09 81.20 10.24
 68.78 90.14 97.82 91.15 81.32 10.25
 68.84 90.16 97.82 91.18 81.38 10.27
 68.89 90.17 97.82 91.20 81.44 10.28
 68.94 90.19 97.82 91.22 81.48 10.29
 69.00 90.20 97.82 91.24 81.52 10.30
 69.10 90.23 97.81 91.28 81.59 10.31
 69.16 90.24 97.81 91.30 81.62 10.32
 69.21 90.25 97.80 91.32 81.65 10.33
 69.26 90.25 97.80 91.33 81.68 10.34
 69.31 90.26 97.80 91.34 81.71 10.35
 69.34 90.27 97.81 91.36 81.73 10.36
 69.39 90.27 97.81 91.37 81.76 10.37
 69.39 90.27 97.81 91.37 81.76 10.38
 69.44 90.28 97.80 91.38 81.80 10.38
 69.47 90.28 97.80 91.39 81.82 10.39
 69.53 90.28 97.80 91.41 81.86 10.40
 69.56 90.28 97.79 91.42 81.89 10.41
 69.58 90.29 97.79 91.43 81.91 10.43
 69.60 90.29 97.78 91.44 81.92 10.44
 69.62 90.29 97.77 91.44 81.94 10.45
 69.64 90.29 97.76 91.45 81.96 10.46
 69.67 90.30 97.74 91.46 81.98 10.46
 69.69 90.30 97.73 91.47 82.00 10.47
 69.70 90.30 97.72 91.47 82.01 10.48
 69.71 90.30 97.71 91.48 82.02 10.49
 69.72 90.30 97.71 91.48 82.03 10.50
 69.72 90.29 97.70 91.49 82.04 10.51
 69.73 90.29 97.69 91.49 82.06 10.52
 69.74 90.29 97.68 91.50 82.08 10.53
 69.75 90.29 97.68 91.50 82.09 10.54
 69.76 90.29 97.67 91.50 82.10 10.55
 69.77 90.29 97.66 91.50 82.11 10.56
 69.79 90.28 97.66 91.50 82.13 10.57
 69.79 90.28 97.66 91.50 82.13 10.58
 69.78 90.28 97.65 91.50 82.15 10.59
 69.79 90.28 97.65 91.50 82.15 10.60
 69.79 90.28 97.64 91.50 82.16 10.61
 69.81 90.28 97.63 91.49 82.17 10.62
 69.82 90.27 97.61 91.49 82.17 10.63
 69.82 90.27 97.61 91.49 82.17 10.64
 69.85 90.27 97.60 91.49 82.19 10.65
 69.85 90.27 97.59 91.48 82.20 10.66
 69.85 90.27 97.56 91.48 82.21 10.67
 69.84 90.26 97.54 91.48 82.22 10.68
 69.80 90.26 97.52 91.48 82.23 10.69
 69.74 90.26 97.47 91.48 82.25 10.70
 69.71 90.25 97.46 91.48 82.25 10.71
 69.66 90.25 97.45 91.47 82.26 10.72
 69.57 90.25 97.44 91.47 82.26 10.73
 69.46 90.25 97.43 91.47 82.27 10.74
 69.18 90.25 97.43 91.47 82.28 10.75
 69.02 90.25 97.43 91.46 82.29 10.76
 68.86 90.25 97.42 91.46 82.30 10.78
 68.58 90.25 97.42 91.46 82.30 10.79
 68.19 90.25 97.41 91.45 82.30 10.80
 67.75 90.25 97.41 91.45 82.31 10.81
 67.26 90.25 97.40 91.45 82.30 10.82
 66.94 90.25 97.40 91.44 82.30 10.83
 66.94 90.25 97.40 91.44 82.30 10.84
 65.99 90.26 97.38 91.42 82.29 10.85
 65.57 90.27 97.37 91.41 82.29 10.86
 64.45 90.28 97.36 91.40 82.26 10.87
 63.66 90.30 97.36 91.39 82.24 10.88
 62.81 90.34 97.36 91.37 82.20 10.89
 61.77 90.42 97.38 91.35 82.13 10.90
 61.29 90.46 97.40 91.34 82.10 10.91
 60.76 90.51 97.43 91.33 82.08 10.92
 60.17 90.55 97.46 91.33 82.06 10.93
 59.32 90.57 97.49 91.33 82.06 10.94
 58.38 90.57 97.52 91.35 82.13 10.95
 58.29 90.57 97.52 91.37 82.17 10.96
 58.22 90.56 97.52 91.39 82.21 10.97
 58.17 90.56 97.52 91.40 82.24 10.98
 58.00 90.54 97.52 91.42 82.30 10.99
 57.90 90.52 97.53 91.43 82.33 11.00
 57.77 90.50 97.53 91.44 82.35 11.01
 57.62 90.46 97.53 91.44 82.37 11.02
 57.40 90.42 97.53 91.45 82.39 11.03
 57.07 90.37 97.53 91.45 82.40 11.04
 56.41 90.32 97.52 91.46 82.42 11.05
 55.78 90.26 97.52 91.46 82.43 11.06
 55.32 90.19 97.51 91.46 82.45 11.07
 54.96 90.07 97.51 91.47 82.46 11.08
 54.80 89.92 97.50 91.47 82.48 11.09
 54.77 89.87 97.46 91.47 82.48 11.10
 54.74 89.80 97.41 91.47 82.48 11.11
 54.73 89.71 97.36 91.47 82.48 11.12
 54.73 89.62 97.31 91.47 82.48 11.13
 54.73 89.56 97.24 91.47 82.48 11.14
 54.73 89.48 97.10 91.46 82.46 11.15
 54.73 89.43 97.05 91.46 82.45 11.16
 54.73 89.38 96.99 91.45 82.44 11.17
 54.73 89.34 96.95 91.45 82.43 11.18
 54.72 89.30 96.92 91.44 82.42 11.19
 54.69 89.23 96.87 91.44 82.40 11.20
 54.67 89.21 96.85 91.43 82.40 11.21
 54.65 89.16 96.83 91.43 82.39 11.22
 54.63 89.13 96.82 91.43 82.38 11.23
 54.61 89.11 96.79 91.43 82.37 11.24
 54.61 89.09 96.77 91.43 82.36 11.25
 54.59 89.07 96.75 91.43 82.35 11.26
 54.60 89.05 96.73 91.42 82.35 11.27
 54.85 89.02 96.70 91.42 82.33 11.28
 54.88 89.01 96.69 91.42 82.33 11.29
 54.90 89.00 96.68 91.42 82.32 11.30
 54.92 88.99 96.67 91.42 82.31 11.31
 54.90 88.97 96.63 91.41 82.30 11.32
 55.32 88.95 96.62 91.41 82.30 11.33
 55.63 88.93 96.60 91.41 82.29 11.34
 55.85 88.92 96.59 91.41 82.29 11.35
 55.98 88.90 96.58 91.41 82.29 11.36
 56.09 88.88 96.56 91.41 82.28 11.37
 56.19 88.85 96.54 91.41 82.28 11.38
 56.20 88.84 96.54 91.41 82.28 11.39
 56.20 88.83 96.53 91.41 82.28 11.40
 56.20 88.82 96.53 91.41 82.28 11.41
 56.21 88.82 96.53 91.42 82.27 11.42
 56.21 88.81 96.53 91.42 82.28 11.43
 56.21 88.81 96.53 91.43 82.28 11.44
 56.24 88.81 96.53 91.43 82.28 11.45
 56.27 88.81 96.53 91.44 82.28 11.46
 56.27 88.81 96.54 91.46 82.30 11.47
 56.27 88.81 96.56 91.48 82.32 11.48
 56.27 88.82 96.59 91.49 82.33 11.49
 56.27 88.83 96.62 91.50 82.34 11.50
 56.27 88.84 96.65 91.51 82.36 11.51
 56.27 88.86 96.67 91.53 82.38 11.52
 56.27 88.90 96.69 91.53 82.40 11.53
 56.27 88.90 96.69 91.53 82.40 11.54
 56.63 89.23 97.84 92.49 83.24 11.55
 56.63 89.23 97.84 92.49 83.24 11.56
 57.06 89.83 98.57 93.08 83.68 11.56
 57.57 90.64 99.25 93.66 84.10 11.57
 58.10 91.07 99.59 93.95 84.32 11.58
 58.56 91.43 99.89 94.18 84.51 11.59
 58.85 91.77 100.12 94.39 84.67 11.60
 58.99 92.06 100.34 94.58 84.81 11.61
 59.07 92.32 100.54 94.74 84.94 11.62
 59.72 92.74 100.85 95.06 85.15 11.63
 60.25 92.92 100.95 95.20 85.26 11.64
 60.96 93.08 101.06 95.32 85.37 11.65
 60.96 93.08 101.06 95.32 85.37 11.66
 60.96 93.08 101.06 95.32 85.37 11.67
 63.13 93.30 101.21 95.43 85.49 11.68
 64.10 93.36 101.27 95.48 85.51 11.69
 65.89 93.47 101.34 95.56 85.59 11.70
 67.35 93.58 101.41 95.65 85.68 11.71
 68.91 93.70 101.50 95.75 85.78 11.72
 69.41 93.75 101.53 95.79 85.82 11.73
 70.11 93.82 101.57 95.85 85.88 11.74
 70.56 93.87 101.60 95.90 85.92 11.75
 71.63 93.99 101.65 95.95 85.97 11.76
 71.94 94.04 101.68 95.96 85.99 11.77
 72.29 94.08 101.70 95.98 86.00 11.78
 72.58 94.12 101.72 95.99 85.99 11.79
 72.87 94.15 101.74 96.00 85.99 11.80
 73.14 94.18 101.76 96.02 86.01 11.81
 73.46 94.25 101.84 96.03 86.01 11.82
 73.62 94.28 101.89 96.06 86.00 11.83
 73.77 94.30 101.93 96.09 86.01 11.84
 73.91 94.33 101.96 96.10 86.00 11.85
 74.06 94.35 101.99 96.12 85.99 11.86
 74.19 94.36 102.01 96.13 85.98 11.87
 74.37 94.40 102.04 96.15 85.97 11.88
 74.48 94.41 102.04 96.15 85.96 11.89
 74.58 94.42 102.05 96.15 85.96 11.90
 74.66 94.43 102.05 96.15 85.95 11.91
 74.73 94.44 102.06 96.15 85.95 11.92
 74.81 94.44 102.07 96.15 85.94 11.93
 74.90 94.44 102.08 96.15 85.94 11.94
 74.96 94.45 102.09 96.15 85.94 11.95
 75.03 94.44 102.07 96.14 85.94 11.96
 75.10 94.43 102.05 96.11 85.93 11.97
 75.14 94.41 102.03 96.09 85.94 11.98
 75.18 94.40 102.03 96.08 85.96 11.99
 75.25 94.39 102.02 96.05 85.97 12.00
 75.27 94.38 102.01 96.04 85.97 12.01
 75.32 94.36 101.99 96.03 85.97 12.02
 75.35 94.34 101.98 96.03 85.96 12.03
 75.43 94.30 101.94 96.02 85.97 12.04
 75.43 94.30 101.94 96.02 85.97 12.05
 75.51 94.26 101.91 96.01 85.96 12.06
 75.56 94.25 101.90 96.00 85.95 12.07
 75.57 94.23 101.89 95.99 85.94 12.08
 75.63 94.20 101.87 95.97 85.93 12.09
 75.65 94.18 101.86 95.97 85.91 12.11
 75.67 94.16 101.86 95.97 85.91 12.12
 75.69 94.15 101.86 95.97 85.91 12.13
 75.71 94.12 101.86 95.96 85.92 12.14
 75.71 94.10 101.85 95.97 85.93 12.15
 75.72 94.07 101.86 95.96 85.94 12.16
 75.72 94.05 101.87 95.95 85.95 12.17
 75.71 94.03 101.87 95.94 85.94 12.18
 75.71 94.02 101.88 95.94 85.92 12.19
 75.70 94.00 101.88 95.94 85.91 12.20
 75.70 93.98 101.88 95.94 85.90 12.21
 75.70 93.97 101.87 95.94 85.90 12.22
 75.70 93.96 101.86 95.94 85.89 12.23
 75.71 93.96 101.86 95.93 85.88 12.24
 75.71 93.95 101.87 95.93 85.87 12.25
 75.71 93.94 101.86 95.93 85.86 12.26
 75.70 93.94 101.86 95.93 85.85 12.27
 75.71 93.92 101.87 95.92 85.85 12.28
 75.72 93.90 101.87 95.91 85.86 12.29
 75.72 93.89 101.86 95.90 85.86 12.30
 75.72 93.87 101.85 95.90 85.87 12.31
 75.71 93.83 101.83 95.90 85.86 12.32
 75.71 93.83 101.83 95.90 85.86 12.33
 75.70 93.80 101.82 95.90 85.85 12.34
 75.68 93.73 101.80 95.87 85.83 12.35
 75.65 93.69 101.80 95.86 85.81 12.36
 75.65 93.69 101.80 95.86 85.81 12.37
 75.60 93.60 101.80 95.85 85.80 12.38
 75.55 93.53 101.80 95.85 85.79 12.39
 75.37 93.29 101.85 95.87 85.77 12.40
 75.03 92.87 101.97 95.93 85.72 12.41
 74.77 92.53 102.06 95.96 85.68 12.42
 74.50 92.20 102.14 95.97 85.64 12.43
 74.05 91.84 102.23 95.99 85.59 12.44
 73.23 91.10 102.35 96.01 85.49 12.45
 73.23 91.10 102.35 96.01 85.49 12.46
 72.37 89.58 102.49 96.10 85.38 12.47
 72.37 89.58 102.49 96.10 85.38 12.48
 71.55 88.19 102.67 96.22 85.33 12.49
 70.59 86.17 102.93 96.33 85.27 12.50
 70.59 86.17 102.93 96.33 85.27 12.51
 70.21 82.90 103.02 96.42 85.25 12.52
 70.09 81.51 103.04 96.44 85.26 12.53
 69.98 80.10 103.04 96.45 85.26 12.54
 69.88 78.76 103.03 96.47 85.26 12.55
 69.80 77.79 103.01 96.46 85.26 12.56
 69.74 77.20 102.94 96.45 85.25 12.57
 69.69 76.74 102.85 96.43 85.24 12.58
 69.65 76.45 102.74 96.42 85.23 12.59
 69.62 76.25 102.57 96.39 85.21 12.60
 69.53 75.95 102.27 96.35 85.19 12.61
 69.48 75.77 102.13 96.32 85.17 12.62
 69.20 75.27 101.63 96.16 85.09 12.63
 69.03 75.05 101.32 96.02 85.03 12.64
 68.83 74.85 100.99 95.83 84.93 12.65
 68.62 74.63 100.62 95.65 84.82 12.66
 68.46 74.45 100.21 95.43 84.69 12.67
 68.22 74.08 99.46 95.03 84.43 12.68
 68.14 73.86 99.12 94.78 84.27 12.69
 68.08 73.69 98.78 94.53 84.09 12.70
 68.03 73.53 98.43 94.23 83.92 12.71
 67.99 73.35 98.06 93.98 83.72 12.72
 67.92 72.91 97.49 93.76 83.36 12.73
 67.88 72.74 97.26 93.62 83.20 12.74
 67.88 72.74 97.26 93.62 83.20 12.75
 67.88 72.74 97.26 93.62 83.20 12.76
 67.82 72.47 97.06 93.59 82.90 12.77
 67.80 72.38 97.01 93.58 82.80 12.78
 67.74 72.17 96.92 93.52 82.74 12.79
 67.70 71.94 96.82 93.39 82.67 12.80
 67.66 71.68 96.73 93.11 82.59 12.81
 67.62 71.16 96.55 92.50 82.36 12.82
 67.62 70.94 96.44 92.39 82.23 12.83
 67.61 70.71 96.32 92.32 82.12 12.84
 67.62 70.43 95.99 92.30 81.95 12.85
 67.62 70.34 95.85 92.29 81.90 12.86
 67.62 70.27 95.70 92.28 81.85 12.87
 67.62 70.22 95.57 92.27 81.81 12.88
 67.64 70.18 95.44 92.26 81.77 12.89
 67.69 70.12 95.31 92.22 81.72 12.90
 67.72 70.10 95.27 92.21 81.70 12.91
 67.75 70.08 95.25 92.19 81.68 12.92
 67.81 70.08 95.24 92.18 81.66 12.93
 67.87 70.07 95.22 92.17 81.66 12.94
 67.92 70.05 95.22 92.15 81.65 12.95
 68.03 70.00 95.30 92.12 81.69 12.96
 68.05 69.93 95.37 92.11 81.71 12.97
 68.09 69.79 95.45 92.08 81.74 12.98
 68.11 69.57 95.58 92.05 81.76 12.99
 68.11 69.57 95.58 92.05 81.76 13.00
 68.19 69.07 95.81 91.94 81.81 13.01
 68.28 68.76 95.90 91.90 81.83 13.02
 68.28 68.76 95.90 91.90 81.83 13.03
 68.40 68.53 95.98 91.83 81.85 13.04
 68.46 68.47 96.00 91.81 81.86 13.05
 69.02 68.47 96.21 91.67 81.88 13.06
 69.02 68.47 96.21 91.67 81.88 13.07
 69.51 68.85 96.26 91.47 81.82 13.08
 69.81 69.03 96.26 91.30 81.73 13.09
 70.88 71.79 96.19 90.65 81.49 13.10
 71.29 73.56 96.17 90.48 81.38 13.11
 71.64 75.02 96.12 90.33 81.30 13.13
 72.01 76.27 96.07 90.19 81.22 13.14
 72.62 78.35 96.01 89.91 81.13 13.15
 72.89 79.26 96.00 89.85 81.10 13.16
 73.13 80.08 96.01 89.81 81.08 13.17
 73.35 80.88 96.02 89.78 81.07 13.18
 73.56 81.67 96.03 89.78 81.05 13.19
 73.74 82.39 96.07 89.77 81.06 13.20
 73.91 83.09 96.12 89.78 81.07 13.21
 74.05 83.71 96.22 89.79 81.08 13.22
 74.18 84.27 96.32 89.81 81.09 13.23
 74.37 85.19 96.52 89.90 81.13 13.24
 74.44 85.54 96.62 89.96 81.15 13.25
 74.44 85.54 96.62 89.96 81.15 13.26
 74.55 86.22 96.80 90.07 81.18 13.27
 74.59 86.53 96.90 90.13 81.20 13.28
 74.62 86.77 97.00 90.24 81.22 13.29
 74.64 87.03 97.10 90.33 81.25 13.30
 74.66 87.28 97.20 90.43 81.28 13.31
 74.65 87.69 97.41 90.63 81.37 13.32
 74.63 87.87 97.52 90.74 81.43 13.33
 74.58 88.04 97.62 90.86 81.50 13.34
 74.55 88.19 97.71 90.97 81.58 13.35
 74.52 88.44 97.89 91.18 81.73 13.36
 74.52 88.44 97.89 91.18 81.73 13.37
 74.47 88.70 98.06 91.34 81.88 13.38
 74.44 88.83 98.15 91.39 81.94 13.39
 74.37 89.06 98.31 91.48 82.08 13.40
 74.33 89.17 98.39 91.53 82.14 13.41
 74.28 89.26 98.46 91.59 82.20 13.42
 74.23 89.34 98.53 91.65 82.26 13.43
 74.18 89.40 98.60 91.72 82.32 13.44
 74.18 89.40 98.60 91.72 82.32 13.45
 74.12 89.45 98.69 91.79 82.38 13.46
 74.05 89.49 98.77 91.88 82.46 13.47
 74.00 89.53 98.85 92.03 82.54 13.48
 73.95 89.54 98.89 92.11 82.59 13.49
 73.80 89.56 98.99 92.27 82.70 13.50
 73.71 89.56 99.06 92.39 82.76 13.51
 73.57 89.57 99.15 92.49 82.85 13.52
 73.45 89.58 99.25 92.55 82.94 13.53
 73.28 89.59 99.39 92.70 83.08 13.54
 73.20 89.59 99.45 92.78 83.15 13.55
 73.13 89.59 99.51 92.84 83.22 13.56
 73.05 89.59 99.57 92.90 83.28 13.57
 72.99 89.58 99.61 92.95 83.32 13.58
 72.95 89.58 99.65 92.99 83.36 13.59
 72.84 89.57 99.70 93.12 83.43 13.60
 72.81 89.56 99.72 93.17 83.46 13.61
 72.78 89.56 99.73 93.19 83.49 13.62
 72.75 89.56 99.74 93.22 83.51 13.63
 72.71 89.56 99.75 93.23 83.52 13.64
 72.67 89.56 99.76 93.24 83.53 13.65
 72.63 89.56 99.76 93.26 83.54 13.66
 72.58 89.56 99.76 93.28 83.56 13.67
 72.54 89.57 99.77 93.28 83.56 13.68
 72.50 89.57 99.77 93.28 83.57 13.69
 72.50 89.57 99.77 93.28 83.57 13.70
 72.47 89.57 99.77 93.29 83.58 13.71
 72.43 89.58 99.78 93.31 83.58 13.72
 72.39 89.58 99.79 93.33 83.58 13.73
 72.33 89.58 99.79 93.34 83.58 13.74
 72.30 89.59 99.79 93.34 83.58 13.75
 72.26 89.60 99.80 93.34 83.59 13.76
 72.23 89.61 99.80 93.34 83.59 13.77
 72.20 89.62 99.80 93.35 83.59 13.78
 72.15 89.66 99.81 93.35 83.59 13.78
 72.11 89.68 99.81 93.35 83.59 13.79
 72.07 89.70 99.81 93.36 83.60 13.80
 72.03 89.72 99.80 93.37 83.60 13.81
 71.99 89.75 99.79 93.37 83.60 13.82
 71.88 89.76 99.79 93.41 83.59 13.83
 71.88 89.76 99.79 93.41 83.59 13.84
 71.88 89.76 99.79 93.41 83.59 13.85
 71.52 90.17 99.26 93.43 83.58 13.86
 71.31 90.42 98.34 93.43 83.54 13.87
 71.09 90.62 97.38 93.40 83.48 13.88
 70.88 90.75 96.38 93.28 83.42 13.89
 70.71 90.78 95.36 93.02 83.34 13.90
 70.71 90.78 95.36 93.02 83.34 13.91
 70.46 90.78 93.51 92.18 83.26 13.92
 70.37 90.76 93.39 91.47 83.22 13.93
 70.25 90.43 91.59 89.42 83.12 13.94
 70.13 90.06 89.52 87.93 83.02 13.95
 70.13 90.06 89.52 87.93 83.02 13.96
 69.98 89.93 89.05 86.37 82.91 13.97
 69.98 89.93 89.05 86.37 82.91 13.98
 69.70 89.95 86.78 84.43 82.77 13.99
 69.67 89.94 87.34 83.74 82.67 14.00
 69.66 89.83 87.75 83.12 82.54 14.01
 69.65 89.30 88.17 81.74 82.24 14.02
 69.65 88.99 88.30 81.09 82.12 14.03
 69.64 88.73 88.39 80.32 81.99 14.04
 69.64 88.52 88.48 79.56 81.87 14.05
 69.63 88.34 88.54 78.68 81.76 14.06
 69.63 87.91 89.12 77.05 81.47 14.07
 69.63 87.91 89.12 77.05 81.47 14.08
 69.63 87.75 89.39 76.75 81.29 14.09
 69.82 87.48 89.56 76.11 80.85 14.10
 69.85 87.34 89.68 74.74 80.67 14.11
 69.86 87.22 89.75 73.85 80.51 14.12
 69.87 87.14 89.79 73.41 80.34 14.13
 69.88 86.99 89.83 73.16 80.15 14.14
 69.89 86.84 89.83 73.01 79.96 14.15
 69.91 86.62 89.79 72.62 79.71 14.16
 69.92 86.49 89.75 72.45 79.59 14.17
 69.93 86.36 89.62 72.35 79.44 14.18
 69.93 86.24 89.50 72.31 79.30 14.19
 69.93 86.11 89.44 72.34 79.17 14.20
 69.92 85.98 89.33 72.48 79.06 14.21
 69.89 85.77 89.20 73.67 78.87 14.22
 69.87 85.68 89.03 74.71 78.80 14.23
 69.80 85.58 88.74 75.53 78.75 14.24
 69.75 85.40 88.41 75.86 78.72 14.25
 69.71 85.16 88.18 75.92 78.69 14.26
 69.68 84.85 88.03 75.94 78.66 14.27
 69.60 84.33 87.85 75.99 78.62 14.28
 69.60 84.15 87.80 76.02 78.61 14.29
 69.59 84.05 87.77 76.06 78.61 14.30
 69.58 83.99 87.76 76.09 78.61 14.31
 69.58 83.95 87.76 76.12 78.60 14.32
 69.57 83.94 87.76 76.15 78.61 14.33
 69.58 83.91 87.77 76.46 78.64 14.34
 69.59 83.91 87.83 76.44 78.70 14.35
 69.63 83.91 87.92 76.43 78.76 14.36
 69.70 83.92 88.01 76.42 78.85 14.37
 69.81 84.02 88.30 76.16 78.99 14.38
 69.87 84.08 88.46 76.09 79.05 14.40
 69.98 84.19 88.69 76.11 79.07 14.41
 70.13 84.31 88.89 76.29 79.09 14.42
 70.27 84.42 89.03 76.76 79.10 14.43
 70.40 84.56 89.25 77.48 79.12 14.44
 70.51 84.72 89.47 77.91 79.14 14.45
 70.70 84.80 89.62 78.56 79.17 14.46
 71.02 85.06 89.87 79.68 79.25 14.47
 71.18 85.13 89.97 80.25 79.31 14.48
 71.31 85.30 89.67 80.63 79.38 14.49
 71.48 85.39 88.90 81.08 79.42 14.50
 71.80 85.33 88.28 81.72 79.50 14.51
 72.05 85.13 88.20 81.99 79.51 14.52
 72.29 84.98 88.15 82.26 79.46 14.53
 72.50 84.81 88.13 82.51 79.34 14.54
 72.67 84.70 88.15 82.72 79.22 14.55
 72.81 84.62 88.21 82.99 79.15 14.56
 72.89 84.56 88.38 83.33 79.08 14.57
 73.07 84.46 88.91 83.96 78.97 14.58
 73.19 84.44 89.27 84.25 78.95 14.59
 73.31 84.44 89.59 84.54 78.90 14.60
 73.43 84.45 89.85 84.78 78.89 14.61
 73.61 84.51 90.35 85.10 78.93 14.62
 73.68 84.64 90.59 85.25 78.98 14.63
 73.73 84.74 90.77 85.53 79.03 14.64
 73.74 84.85 90.91 85.78 79.10 14.65
 73.75 84.96 91.05 86.06 79.16 14.66
 73.76 85.07 91.20 86.34 79.22 14.67
 73.77 85.18 91.34 86.57 79.29 14.68
 73.76 85.61 91.73 86.94 79.46 14.69
 73.75 85.84 91.95 87.12 79.54 14.70
 73.74 86.24 92.39 87.50 79.70 14.71
 73.74 86.43 92.59 87.67 79.79 14.72
 73.72 86.58 92.77 87.80 79.87 14.74
 73.70 86.71 92.92 87.88 79.94 14.75
 73.69 86.77 93.03 87.95 80.00 14.76
 73.69 86.81 93.12 88.02 80.06 14.76
 73.68 86.86 93.20 88.12 80.10 14.77
 73.63 87.04 93.34 88.27 80.20 14.78
 73.63 87.04 93.34 88.27 80.20 14.79
 73.58 87.24 93.51 88.45 80.31 14.80
 73.56 87.33 93.57 88.55 80.36 14.81
 73.52 87.48 93.68 88.73 80.46 14.83
 73.48 87.51 93.74 88.81 80.51 14.83
 73.45 87.54 93.80 88.87 80.55 14.84
 73.42 87.59 93.85 88.92 80.59 14.85
 73.40 87.65 93.88 88.97 80.62 14.86
 73.38 87.71 93.92 89.03 80.65 14.87
 73.36 87.74 93.96 89.09 80.69 14.88
 73.33 87.85 94.05 89.18 80.75 14.89
 73.31 87.91 94.10 89.22 80.79 14.90
 73.30 87.94 94.15 89.27 80.82 14.91
 73.29 87.98 94.22 89.30 80.85 14.92
 73.29 87.98 94.22 89.30 80.85 14.93
 73.27 88.05 94.35 89.37 80.90 14.94
 73.26 88.08 94.38 89.38 80.92 14.95
 73.24 88.14 94.42 89.43 80.95 14.96
 73.22 88.18 94.47 89.45 80.99 14.97
 73.20 88.24 94.52 89.46 81.02 14.98
 73.17 88.29 94.55 89.47 81.04 14.99
 73.15 88.35 94.58 89.48 81.06 15.00
 73.13 88.39 94.61 89.50 81.07 15.01
 73.10 88.47 94.67 89.52 81.11 15.02
 73.08 88.50 94.69 89.54 81.12 15.03
 73.07 88.53 94.72 89.55 81.13 15.04
 73.06 88.56 94.74 89.56 81.14 15.05
 73.05 88.58 94.76 89.57 81.16 15.06
 73.02 88.61 94.80 89.60 81.18 15.07
 73.01 88.63 94.82 89.61 81.19 15.08
 72.99 88.64 94.85 89.65 81.20 15.09
 72.97 88.65 94.88 89.72 81.23 15.10
 72.96 88.65 94.89 89.74 81.26 15.11
 72.95 88.66 94.91 89.76 81.28 15.12
 72.94 88.66 94.92 89.78 81.30 15.13
 72.93 88.66 94.93 89.81 81.31 15.14
 72.92 88.66 94.93 89.84 81.33 15.15
 72.90 88.65 94.93 89.87 81.34 15.16
 72.88 88.64 94.94 89.89 81.35 15.17
 72.88 88.64 94.94 89.91 81.36 15.18
 72.87 88.63 94.94 89.92 81.37 15.19
 72.86 88.61 94.94 89.94 81.38 15.20
 72.84 88.60 94.94 89.94 81.40 15.21
 72.84 88.59 94.95 89.95 81.41 15.22
 72.82 88.56 94.95 89.94 81.41 15.23
 72.79 88.50 94.96 89.81 81.42 15.25
 72.79 88.47 94.96 89.57 81.42 15.26
 72.78 88.45 94.96 89.29 81.40 15.27
 72.78 88.42 94.96 88.91 81.37 15.28
 72.77 88.38 94.95 88.45 81.31 15.29
 72.76 88.32 94.87 87.36 81.09 15.30
 72.75 88.27 94.75 86.82 80.96 15.31
 72.53 87.90 94.77 85.66 80.94 15.32
 72.17 87.35 94.78 84.33 80.93 15.33
 71.86 86.99 94.76 83.06 80.93 15.34
 71.41 87.33 94.60 80.55 80.98 15.35
 71.29 87.51 94.51 79.48 81.00 15.36
 71.18 87.64 94.37 78.93 81.01 15.37
 71.11 87.66 94.21 81.39 81.00 15.38
 71.00 87.65 93.58 83.69 80.66 15.39
 70.96 87.62 93.16 83.84 80.42 15.40
 70.94 87.54 92.69 83.88 80.14 15.41
 70.93 87.38 92.20 83.87 79.83 15.42
 70.92 87.17 91.72 83.81 79.48 15.43
 70.91 86.95 91.20 83.62 79.12 15.44
 70.90 86.69 90.74 83.07 78.69 15.45
 70.89 86.42 90.21 82.18 78.32 15.46
 70.88 86.15 89.72 81.45 77.97 15.47
 70.86 85.61 88.61 80.14 77.34 15.48
 70.85 85.34 88.12 79.51 77.03 15.49
 70.85 85.08 87.67 78.97 76.72 15.50
 70.86 84.84 87.21 78.54 76.38 15.51
 70.87 84.65 86.80 78.13 76.05 15.52
 70.88 84.45 86.36 77.73 75.69 15.53
 70.91 84.03 85.49 76.93 74.99 15.54
 70.94 83.82 85.05 76.47 74.66 15.55
 70.98 83.58 84.64 75.99 74.36 15.56
 71.15 83.15 83.73 75.15 73.79 15.57
 71.15 83.15 83.73 75.15 73.79 15.59
 71.36 82.94 82.94 74.24 73.18 15.60
 71.66 82.75 81.81 73.69 72.47 15.61
 71.87 82.66 81.18 73.56 72.10 15.62
 72.18 82.62 80.72 73.40 71.74 15.63
 72.50 82.60 80.41 73.21 71.42 15.64
 72.79 82.60 80.18 72.99 71.19 15.65
 73.12 82.59 79.96 72.81 71.00 15.66
 73.77 82.60 79.64 72.63 70.75 15.67
 74.10 82.62 79.57 72.59 70.66 15.68
 74.37 82.66 79.51 72.57 70.60 15.69
 74.94 82.77 79.47 72.56 70.53 15.70
 75.18 82.84 79.46 72.56 70.53 15.71
 75.38 82.94 79.46 72.57 70.53 15.72
 75.56 83.03 79.47 72.58 70.55 15.73
 75.70 83.12 79.49 72.65 70.59 15.74
 75.84 83.19 79.54 72.77 70.70 15.75
 75.95 83.25 79.63 72.94 70.90 15.76
 76.30 83.43 79.90 73.31 71.31 15.77
 76.47 83.42 80.04 73.70 71.66 15.78
 76.63 83.36 80.37 74.14 72.06 15.79
 76.83 83.20 80.82 74.64 72.53 15.80
 77.03 82.99 81.36 75.04 73.01 15.81
 77.51 82.69 82.49 75.75 73.93 15.82
 77.79 82.64 82.98 76.08 74.35 15.83
 78.11 82.59 83.44 76.37 74.76 15.84
 78.42 82.58 83.80 76.63 75.15 15.85
 78.75 82.56 84.14 76.90 75.55 15.86
 79.07 82.54 84.46 77.22 75.90 15.87
 79.36 82.51 84.76 77.55 76.26 15.88
 79.60 82.50 85.11 77.89 76.62 15.89
 79.80 82.49 85.46 78.20 77.00 15.90
 80.01 82.49 85.81 78.52 77.39 15.91
 80.26 82.74 87.03 78.10 77.94 15.92
 80.30 82.96 87.49 77.71 78.15 15.93
 80.32 83.16 87.80 77.64 78.33 15.94
 80.35 83.31 88.03 77.66 78.47 15.95
 80.38 83.43 88.23 77.83 78.59 15.96
 80.37 83.83 88.88 77.83 78.73 15.97
 80.37 84.05 89.04 78.63 78.81 15.98
 80.33 84.10 89.10 79.10 78.84 15.99
 80.28 84.14 89.20 79.56 78.85 15.99
 80.24 84.18 89.38 80.01 78.86 16.00
 80.20 84.24 89.63 80.47 78.87 16.01
 80.20 84.24 89.63 80.47 78.87 16.03
 80.15 84.36 89.97 81.52 78.90 16.03
 80.13 84.42 90.08 81.92 78.91 16.04
 80.06 84.54 90.31 82.45 78.94 16.05
 79.97 84.68 90.56 82.93 78.97 16.06
 79.86 84.84 90.80 83.33 79.00 16.07
 79.75 85.00 91.05 83.64 79.02 16.08
 79.61 85.15 91.25 83.92 79.04 16.09
 79.34 85.40 91.69 84.32 79.09 16.10
 79.34 85.40 91.69 84.32 79.09 16.11
 79.09 85.61 92.03 84.65 79.12 16.12
 78.84 85.78 92.29 84.97 79.17 16.13
 78.78 85.86 92.43 85.11 79.19 16.14
 78.71 85.93 92.57 85.24 79.22 16.15
 78.65 86.00 92.71 85.37 79.25 16.16
 78.60 86.06 92.80 85.47 79.27 16.17
 78.49 86.18 92.95 85.62 79.33 16.18
 78.44 86.22 93.01 85.70 79.35 16.19
 78.39 86.26 93.07 85.78 79.36 16.20
 78.34 86.30 93.14 85.85 79.38 16.21
 78.27 86.33 93.23 85.90 79.39 16.22
 78.21 86.37 93.27 85.96 79.41 16.23
 78.17 86.40 93.31 86.01 79.42 16.24
 78.12 86.46 93.40 86.15 79.45 16.25
 78.07 86.49 93.45 86.19 79.46 16.26
 78.02 86.51 93.49 86.23 79.47 16.28
 77.97 86.55 93.54 86.27 79.48 16.29
 77.97 86.55 93.54 86.27 79.48 16.30
 77.83 86.61 93.62 86.35 79.50 16.31
 77.73 86.66 93.68 86.40 79.51 16.32
 77.73 86.66 93.68 86.40 79.51 16.33
 77.60 86.71 93.77 86.47 79.53 16.34
 77.51 86.75 93.80 86.52 79.54 16.35
 77.42 86.78 93.83 86.56 79.55 16.36
 77.28 86.84 93.90 86.64 79.58 16.37
 77.22 86.87 93.94 86.69 79.59 16.38
 77.14 86.90 93.98 86.72 79.60 16.39
 77.06 86.94 94.01 86.76 79.61 16.40
 76.88 86.98 94.14 86.84 79.62 16.41
 76.80 87.01 94.17 86.89 79.63 16.42
 76.69 87.03 94.21 86.95 79.63 16.43
 76.57 87.05 94.24 87.01 79.64 16.44
 76.44 87.06 94.27 87.07 79.64 16.45
 76.30 87.08 94.32 87.13 79.65 16.46
 76.19 87.10 94.40 87.18 79.65 16.47
 75.98 87.14 94.47 87.28 79.67 16.48
 75.98 87.14 94.47 87.28 79.67 16.49
 75.82 87.17 94.50 87.34 79.69 16.50
 75.76 87.19 94.51 87.37 79.70 16.51
 75.70 87.20 94.52 87.39 79.71 16.52
 75.64 87.21 94.53 87.41 79.71 16.53
 75.64 87.21 94.53 87.41 79.71 16.54
 75.54 87.23 94.55 87.44 79.73 16.55
 75.54 87.23 94.55 87.44 79.73 16.56
 75.45 87.25 94.57 87.46 79.74 16.57
 75.35 87.26 94.58 87.49 79.75 16.58
 75.32 87.26 94.58 87.50 79.76 16.60
 75.27 87.27 94.60 87.51 79.76 16.61
 75.22 87.27 94.60 87.53 79.77 16.62
 75.17 87.27 94.61 87.54 79.78 16.63
 75.08 87.27 94.62 87.59 79.79 16.64
 75.04 87.27 94.62 87.61 79.80 16.65
 75.00 87.27 94.63 87.64 79.80 16.66
 74.96 87.27 94.64 87.67 79.82 16.67
 74.90 87.26 94.65 87.72 79.82 16.68
 74.87 87.26 94.67 87.75 79.82 16.69
 74.82 87.26 94.68 87.77 79.82 16.70
 74.77 87.25 94.72 87.78 79.81 16.71
 74.72 87.25 94.73 87.81 79.77 16.72
 74.64 87.24 94.74 87.82 79.69 16.73
 74.56 87.24 94.76 87.83 79.54 16.74
 74.50 87.23 94.77 87.83 79.33 16.75
 74.44 87.22 94.77 87.83 79.09 16.76
 74.38 87.21 94.79 87.82 78.78 16.77
 74.28 87.20 94.86 87.82 78.08 16.78
 74.22 87.19 94.90 87.81 77.71 16.79
 74.14 87.18 94.96 87.81 77.31 16.80
 73.98 87.18 95.03 87.87 76.63 16.81
 73.85 87.20 95.23 87.95 76.17 16.82
 73.72 87.18 95.84 87.95 75.63 16.83
 73.57 87.15 96.49 87.94 74.57 16.84
 73.45 87.08 96.92 87.93 73.28 16.85
 73.45 86.96 97.74 87.77 69.86 16.86
 73.53 86.92 97.91 87.38 69.24 16.87
 73.57 86.81 97.98 86.85 69.16 16.88
 73.59 86.63 98.03 86.17 69.52 16.89
 73.62 86.38 98.06 85.52 69.64 16.90
 73.71 85.90 98.09 84.88 69.69 16.91
 73.74 85.68 98.10 84.44 69.70 16.92
 73.76 85.47 98.10 84.13 69.69 16.93
 73.78 85.26 98.08 83.69 69.66 16.94
 73.80 85.09 98.06 83.21 69.60 16.95
 73.82 84.91 98.04 82.93 69.49 16.96
 73.85 84.73 98.01 82.77 69.37 16.97
 73.86 84.56 97.98 82.62 69.24 16.98
 73.88 83.90 97.95 81.91 68.93 16.99
 73.88 83.60 97.94 81.75 68.67 17.00
 73.94 83.04 97.93 81.53 68.29 17.01
 73.99 82.86 97.92 81.44 68.12 17.02
 74.04 82.77 97.92 81.39 67.98 17.03
 74.09 82.73 97.88 81.25 67.88 17.04
 74.16 82.58 97.84 81.08 67.64 17.05
 74.23 82.44 97.81 80.91 67.32 17.06
 74.30 82.18 97.74 80.22 66.68 17.07
 74.34 81.91 97.66 80.00 66.23 17.08
 74.37 81.56 97.55 79.83 65.89 17.09
 74.41 81.21 97.44 79.65 65.64 17.11
 74.41 81.21 97.44 79.65 65.64 17.12
 74.51 80.75 97.31 79.34 65.28 17.13
 74.56 80.69 97.26 79.22 65.17 17.14
 74.63 80.38 96.83 78.88 64.56 17.15
 74.63 80.38 96.83 78.88 64.56 17.16
 74.65 80.20 96.59 78.70 64.30 17.17
 74.63 79.75 96.19 78.36 63.90 17.18
 74.59 79.45 96.03 78.22 63.70 17.19
 74.58 79.11 95.96 77.95 63.51 17.20
 74.53 78.71 95.86 77.82 63.19 17.20
 74.48 78.25 95.76 77.74 62.90 17.21
 74.37 77.35 95.62 77.54 62.41 17.22
 74.32 76.90 95.58 77.47 62.19 17.23
 74.30 76.46 95.52 77.42 61.98 17.24
 74.28 76.01 95.48 77.36 61.88 17.25
 74.28 75.64 95.37 77.31 61.82 17.27
 74.29 74.89 95.19 77.19 61.77 17.27
 74.39 74.51 95.09 77.18 61.67 17.28
 74.52 74.14 95.01 77.18 61.51 17.29
 74.71 73.62 94.91 77.18 61.41 17.31
 74.94 73.51 94.47 77.45 61.30 17.32
 75.13 73.14 93.97 78.66 61.09 17.33
 75.23 72.88 93.71 80.16 60.41 17.34
 75.47 72.72 93.46 81.72 59.48 17.35
 75.64 73.14 93.45 82.16 59.00 17.36
 75.82 73.79 93.44 82.44 58.72 17.37
 76.01 74.64 93.44 82.68 58.49 17.38
 76.18 75.61 93.44 82.92 58.34 17.39
 76.33 76.78 93.45 83.20 58.27 17.40
 76.42 77.99 93.48 83.44 58.25 17.41
 76.49 79.32 93.53 83.71 58.24 17.42
 76.53 80.23 93.59 83.94 58.32 17.43
 76.59 81.46 93.76 84.40 58.98 17.44
 76.59 81.80 93.86 84.62 59.43 17.45
 76.60 82.13 93.96 84.84 59.92 17.46
 76.59 82.41 94.07 85.04 60.43 17.47
 76.55 82.89 94.31 85.44 61.58 17.48
 76.51 83.12 94.42 85.63 62.25 17.49
 76.48 83.34 94.50 85.80 62.96 17.50
 76.45 83.55 94.61 85.96 63.66 17.51
 76.39 83.97 94.85 86.28 64.96 17.52
 76.35 84.20 95.00 86.45 65.66 17.53
 76.30 84.43 95.15 86.64 66.37 17.54
 76.21 84.68 95.32 86.87 67.09 17.55
 76.13 84.92 95.51 87.11 67.82 17.56
 76.06 85.15 95.70 87.31 68.55 17.57
 75.89 85.66 96.02 87.78 70.00 17.58
 75.89 85.66 96.02 87.78 70.00 17.59
 75.72 86.19 96.49 88.32 71.13 17.60
 75.72 86.19 96.49 88.32 71.13 17.61
 75.64 86.50 96.78 88.64 71.74 17.62
 75.58 86.74 97.02 88.87 72.18 17.63
 75.49 87.04 97.28 89.16 72.75 17.64
 75.42 87.20 97.46 89.37 73.13 17.65
 75.20 87.60 97.88 89.81 74.01 17.66
 75.09 87.79 98.09 90.01 74.37 17.67
 74.96 87.97 98.29 90.20 74.70 17.68
 74.81 88.13 98.47 90.38 74.99 17.69
 74.72 88.29 98.63 90.55 75.27 17.70
 74.46 88.60 98.90 90.85 75.76 17.71
 74.33 88.75 99.04 90.99 75.97 17.73
 74.07 89.03 99.29 91.27 76.35 17.74
 73.94 89.18 99.41 91.37 76.54 17.75
 73.81 89.31 99.53 91.49 76.73 17.76
 73.70 89.43 99.64 91.61 76.92 17.77
 73.58 89.54 99.73 91.73 77.12 17.78
 73.37 89.79 99.87 91.89 77.47 17.79
 73.26 89.88 99.94 91.94 77.63 17.80
 73.26 89.88 99.94 91.94 77.63 17.81
 73.05 90.06 100.04 92.06 77.94 17.82
 72.98 90.15 100.07 92.09 78.09 17.83
 72.91 90.24 100.10 92.11 78.21 17.84
 72.83 90.34 100.13 92.13 78.32 17.85
 72.68 90.51 100.19 92.22 78.55 17.86
 72.59 90.61 100.21 92.27 78.68 17.87
 72.52 90.69 100.23 92.33 78.81 17.88
 72.47 90.77 100.26 92.38 78.91 17.89
 72.42 90.86 100.29 92.45 79.03 17.90
 72.38 90.94 100.31 92.51 79.14 17.91
 72.31 91.12 100.38 92.67 79.38 17.92
 72.26 91.22 100.42 92.73 79.51 17.93
 72.22 91.31 100.45 92.78 79.65 17.94
 72.19 91.40 100.49 92.83 79.78 17.95
 72.13 91.58 100.55 92.93 80.06 17.96
 72.10 91.67 100.57 92.97 80.19 17.97
 72.08 91.75 100.60 93.02 80.32 17.98
 72.06 91.84 100.62 93.06 80.45 17.99
 72.02 92.00 100.66 93.15 80.73 18.00
 72.02 92.07 100.67 93.24 80.87 18.01
 72.01 92.13 100.69 93.30 81.01 18.02
 72.00 92.19 100.71 93.35 81.15 18.03
 71.99 92.26 100.73 93.40 81.27 18.04
 71.94 92.32 100.75 93.44 81.40 18.05
 71.92 92.39 100.76 93.48 81.52 18.06
 71.91 92.45 100.77 93.53 81.62 18.07
 71.90 92.56 100.82 93.64 81.85 18.08
 71.91 92.61 100.84 93.68 81.94 18.09
 71.92 92.67 100.87 93.72 82.03 18.11
 71.94 92.78 100.90 93.80 82.19 18.12
 71.97 92.84 100.91 93.84 82.26 18.13
 72.00 92.90 100.93 93.86 82.32 18.14
 72.03 92.95 100.95 93.89 82.38 18.15
 72.13 93.06 100.98 93.95 82.49 18.16
 72.13 93.06 100.98 93.95 82.49 18.17
 72.24 93.16 101.00 94.01 82.59 18.18
 72.30 93.21 101.01 94.03 82.64 18.19
 72.34 93.25 101.01 94.05 82.69 18.20
 72.34 93.25 101.01 94.05 82.69 18.21
 72.34 93.25 101.01 94.05 82.69 18.22
 72.51 93.35 101.03 94.08 82.79 18.23
 72.60 93.39 101.04 94.10 82.83 18.24
 72.69 93.43 101.05 94.12 82.87 18.25
 72.78 93.45 101.05 94.14 82.92 18.26
 72.86 93.48 101.07 94.16 82.95 18.27
 72.93 93.52 101.08 94.17 82.99 18.27
 73.00 93.55 101.10 94.18 83.03 18.28
 73.05 93.58 101.11 94.19 83.06 18.29
 73.05 93.64 101.12 94.20 83.10 18.30
 73.01 93.66 101.12 94.20 83.13 18.31
 72.92 93.68 101.13 94.21 83.16 18.32
 72.85 93.70 101.13 94.22 83.21 18.33
 72.57 93.76 101.12 94.23 83.31 18.34
 72.39 93.78 101.12 94.23 83.35 18.35
 72.08 93.80 101.12 94.24 83.40 18.36
 71.67 93.84 101.10 94.23 83.43 18.37
 71.29 93.87 101.08 94.22 83.46 18.38
 70.88 93.89 101.06 94.21 83.50 18.39
 70.28 93.93 101.05 94.20 83.53 18.40
 69.42 93.96 101.04 94.19 83.58 18.41
 68.81 93.98 101.04 94.19 83.60 18.42
 65.87 94.19 101.05 94.17 83.64 18.43
 64.32 94.28 101.06 94.15 83.65 18.44
 63.51 94.31 101.07 94.14 83.67 18.45
 62.76 94.33 101.08 94.13 83.71 18.46
 62.17 94.35 101.09 94.13 83.78 18.47
 61.23 94.37 101.10 94.13 83.87 18.48
 59.72 94.39 101.10 94.13 84.07 18.49
 59.20 94.39 101.10 94.13 84.14 18.50
 58.78 94.39 101.09 94.14 84.21 18.51
 58.14 94.34 101.07 94.14 84.34 18.52
 57.85 94.30 101.06 94.14 84.39 18.53
 57.69 94.25 101.04 94.14 84.45 18.54
 57.51 94.20 101.03 94.14 84.50 18.55
 57.43 94.15 101.00 94.13 84.55 18.56
 57.43 94.08 100.97 94.13 84.58 18.58
 57.34 94.02 100.94 94.13 84.61 18.59
 57.32 93.94 100.85 94.13 84.66 18.60
 57.31 93.88 100.81 94.13 84.68 18.61
 57.30 93.82 100.76 94.12 84.70 18.62
 57.31 93.75 100.73 94.12 84.71 18.63
 57.28 93.69 100.71 94.11 84.72 18.64
 57.14 93.57 100.64 94.11 84.76 18.65
 57.14 93.49 100.60 94.10 84.78 18.66
 57.09 93.40 100.56 94.10 84.80 18.67
 57.09 93.32 100.51 94.10 84.81 18.68
 57.04 93.25 100.43 94.10 84.83 18.69
 57.02 93.18 100.37 94.10 84.85 18.70
 56.99 93.12 100.31 94.10 84.87 18.71
 56.94 93.06 100.24 94.10 84.89 18.72
 56.91 92.95 100.17 94.10 84.93 18.73
 56.88 92.88 100.13 94.10 84.94 18.74
 56.86 92.82 100.08 94.10 84.97 18.75
 56.85 92.75 100.03 94.10 84.98 18.76
 56.86 92.61 99.95 94.08 85.00 18.77
 56.88 92.53 99.91 94.07 85.01 18.78
 56.88 92.47 99.88 94.07 85.01 18.79
 56.88 92.40 99.85 94.06 85.02 18.80
 56.89 92.34 99.83 94.04 85.02 18.81
 56.90 92.26 99.82 94.02 85.01 18.82
 56.89 92.22 99.81 94.01 85.00 18.83
 56.90 92.19 99.80 94.01 84.98 18.84
 56.91 92.16 99.80 94.00 84.96 18.85
 56.91 92.13 99.79 93.99 84.94 18.86
 56.93 92.09 99.78 93.98 84.88 18.87
 56.94 92.07 99.77 93.98 84.84 18.88
 56.99 92.04 99.77 93.98 84.80 18.89
 57.01 92.02 99.77 93.97 84.76 18.90
 57.03 92.00 99.76 93.97 84.68 18.91
 57.04 91.99 99.76 93.96 84.64 18.92
 57.05 91.97 99.75 93.95 84.61 18.93
 57.06 91.93 99.74 93.94 84.57 18.94
 57.06 91.89 99.74 93.93 84.53 18.95
 57.07 91.85 99.74 93.91 84.48 18.96
 57.08 91.82 99.74 93.89 84.43 18.97
 56.80 91.81 99.74 93.88 84.40 18.98
 56.77 91.80 99.74 93.87 84.37 18.99
 56.77 91.79 99.75 93.86 84.35 19.00
 56.77 91.76 99.75 93.85 84.33 19.01
 56.77 91.75 99.75 93.84 84.32 19.02
 56.77 91.73 99.75 93.83 84.30 19.03
 56.76 91.71 99.75 93.82 84.26 19.04
 56.75 91.70 99.75 93.82 84.24 19.06
 56.74 91.70 99.75 93.82 84.22 19.07
 56.72 91.70 99.75 93.81 84.20 19.08
 56.69 91.69 99.75 93.79 84.18 19.09
 56.68 91.69 99.75 93.79 84.16 19.10
 56.66 91.69 99.76 93.78 84.16 19.11
 56.64 91.69 99.77 93.78 84.15 19.12
 56.61 91.69 99.77 93.78 84.15 19.13
 56.57 91.69 99.79 93.77 84.15 19.14
 56.52 91.71 99.82 93.78 84.15 19.15
 56.52 91.73 99.85 93.78 84.15 19.16
 56.52 91.74 99.89 93.78 84.15 19.17
 56.51 91.76 99.91 93.78 84.15 19.18
 56.50 91.79 99.91 93.77 84.15 19.19
 56.28 91.86 99.96 93.75 84.17 19.20
 56.07 91.91 99.99 93.75 84.19 19.21
 55.99 91.96 100.00 93.75 84.22 19.22
 55.95 92.01 100.01 93.74 84.25 19.23
 55.94 92.05 100.01 93.74 84.26 19.24
 55.92 92.12 100.01 93.73 84.28 19.25
 55.91 92.15 100.01 93.73 84.29 19.26
 55.90 92.17 100.01 93.73 84.30 19.27
 55.90 92.19 100.02 93.72 84.31 19.28
 55.92 92.21 100.02 93.72 84.34 19.29
 55.92 92.21 100.02 93.72 84.34 19.30
 55.91 92.25 100.03 93.72 84.38 19.31
 55.90 92.26 100.03 93.72 84.40 19.32
 55.90 92.27 100.03 93.71 84.41 19.33
 55.90 92.28 100.03 93.71 84.42 19.34
 55.89 92.29 100.02 93.71 84.44 19.35
 55.96 92.31 100.01 93.69 84.49 19.36
 56.05 92.32 100.01 93.68 84.52 19.37
 56.17 92.32 100.01 93.67 84.54 19.38
 56.35 92.33 100.00 93.66 84.57 19.39
 56.59 92.34 100.00 93.65 84.59 19.40
 57.32 92.35 99.97 93.61 84.64 19.41
 57.91 92.36 99.95 93.59 84.67 19.42
 58.33 92.36 99.93 93.56 84.69 19.43
 58.58 92.37 99.92 93.54 84.71 19.44
 56.76 92.38 99.91 93.51 84.74 19.45
 55.57 92.39 99.89 93.49 84.76 19.46
 54.75 92.41 99.88 93.45 84.81 19.47
 54.62 92.41 99.88 93.44 84.81 19.48
 54.54 92.42 99.87 93.43 84.83 19.49
 54.57 92.42 99.83 93.42 84.86 19.50
 54.67 92.41 99.81 93.41 84.88 19.51
 54.81 92.40 99.79 93.41 84.91 19.52
 54.96 92.39 99.78 93.40 84.93 19.53
 55.13 92.37 99.78 93.39 84.95 19.54
 55.30 92.36 99.77 93.38 84.98 19.55
 55.48 92.34 99.75 93.38 85.00 19.56
 55.73 92.31 99.74 93.37 85.04 19.57
 56.04 92.28 99.72 93.36 85.05 19.58
 56.29 92.25 99.71 93.36 85.07 19.59
 56.78 92.19 99.70 93.35 85.10 19.60
 57.05 92.17 99.69 93.34 85.12 19.61
 57.53 92.11 99.66 93.32 85.15 19.63
 57.80 92.07 99.64 93.32 85.17 19.64
 58.05 92.04 99.63 93.31 85.18 19.65
 58.33 92.00 99.62 93.30 85.20 19.66
 58.57 91.96 99.61 93.29 85.21 19.67
 58.95 91.85 99.58 93.27 85.22 19.68
 59.11 91.79 99.56 93.26 85.23 19.69
 59.25 91.72 99.55 93.26 85.24 19.70
 59.31 91.68 99.54 93.25 85.23 19.71
 59.41 91.64 99.53 93.25 85.23 19.72
 59.43 91.60 99.51 93.25 85.23 19.73
 59.50 91.56 99.51 93.25 85.24 19.74
 59.50 91.53 99.51 93.25 85.24 19.75
 59.60 91.47 99.51 93.26 85.27 19.76
 59.64 91.43 99.51 93.26 85.31 19.77
 59.67 91.38 99.51 93.26 85.34 19.78
 59.67 91.38 99.51 93.26 85.34 19.79
 59.73 91.33 99.50 93.26 85.37 19.80
 59.81 91.21 99.50 93.26 85.38 19.81
 59.91 90.98 99.50 93.27 85.40 19.82
 59.93 90.77 99.50 93.27 85.41 19.83
 59.95 90.53 99.50 93.27 85.41 19.84
 59.98 89.96 99.50 93.27 85.42 19.85
 59.98 89.52 99.50 93.27 85.44 19.86
 59.95 88.95 99.50 93.27 85.44 19.87
 59.97 88.20 99.46 93.27 85.45 19.88
 59.89 87.56 99.44 93.26 85.47 19.89
 59.76 85.98 99.39 93.25 85.47 19.90
 59.67 84.43 99.40 93.29 85.47 19.91
 59.60 83.16 99.38 93.28 85.48 19.92
 59.55 81.58 99.37 93.27 85.49 19.93
 59.48 78.82 99.29 93.23 85.49 19.94
 59.56 77.65 99.17 93.17 85.48 19.95
 59.71 76.64 99.01 93.04 85.47 19.96
 59.96 75.41 98.81 92.85 85.45 19.98
 60.27 74.21 98.52 92.65 85.42 19.99
 60.85 73.24 98.24 92.40 85.37 20.00
 61.69 72.46 97.96 92.15 85.34 20.01
 61.69 72.46 97.96 92.15 85.34 20.02
 64.45 71.17 97.35 91.68 85.26 20.03
 64.45 71.17 97.35 91.68 85.26 20.04
 67.35 70.49 96.82 91.19 85.13 20.05
 68.98 68.86 96.24 90.73 85.06 20.06
 69.39 68.36 96.00 90.55 85.04 20.07
 69.65 67.96 95.78 90.40 85.03 20.08
 69.83 67.44 95.58 90.27 85.03 20.09
 69.97 66.62 95.40 90.16 85.02 20.10
 70.21 66.15 95.16 90.03 85.02 20.11
 70.94 65.51 94.51 89.62 85.01 20.12
 71.12 65.26 94.08 89.35 85.01 20.13
 71.12 65.26 94.08 89.35 85.01 20.14
 71.12 65.26 94.08 89.35 85.01 20.15
 71.12 65.26 94.08 89.35 85.01 20.16
 71.12 65.26 94.08 89.35 85.01 20.17
 71.12 65.26 94.08 89.35 85.01 20.18
 71.12 65.26 94.08 89.35 85.01 20.19
 71.12 65.26 94.08 89.35 85.01 20.20
 71.12 65.26 94.08 89.35 85.01 20.21
 71.12 65.26 94.08 89.35 85.01 20.22
 71.12 65.26 94.08 89.35 85.01 20.23
 71.12 65.26 94.08 89.35 85.01 20.24
 71.36 64.87 93.18 88.69 85.00 20.25
 71.36 64.87 93.18 88.69 85.00 20.26
 71.27 64.47 91.87 87.99 84.96 20.27
 71.19 64.32 91.47 87.65 84.90 20.28
 71.13 64.17 91.03 87.26 84.79 20.29
 71.06 64.08 90.59 86.87 84.66 20.30
 70.97 63.85 89.85 86.20 84.37 20.31
 70.96 63.75 89.56 85.92 84.22 20.32
 70.98 63.65 89.29 85.68 84.06 20.33
 71.00 63.55 89.06 85.46 83.92 20.34
 71.04 63.47 88.73 85.27 83.81 20.35
 71.03 63.37 88.19 85.13 83.73 20.36
 70.91 63.14 87.94 84.83 83.66 20.38
 70.91 63.14 87.94 84.83 83.66 20.39
 70.91 63.14 87.94 84.83 83.66 20.40
 70.79 62.96 87.60 84.75 83.65 20.41
 70.79 62.96 87.60 84.75 83.65 20.42
 70.79 62.96 87.60 84.75 83.65 20.43
 70.79 62.96 87.60 84.75 83.65 20.44
 70.75 62.82 87.59 84.62 83.65 20.45
 70.75 62.82 87.59 84.62 83.65 20.46
 70.74 62.80 87.60 84.57 83.65 20.47
 70.74 62.80 87.60 84.57 83.65 20.48
 70.74 62.80 87.60 84.57 83.65 20.49
 70.70 62.78 87.65 84.53 83.66 20.50
 70.70 62.78 87.65 84.53 83.66 20.51
 70.69 62.76 87.74 84.52 83.67 20.52
 70.69 62.76 87.74 84.52 83.67 20.53
 70.69 62.71 88.00 84.50 83.67 20.54
 70.70 62.69 88.37 84.52 83.68 20.55
 70.70 62.69 88.37 84.52 83.68 20.56
 70.73 62.67 88.86 84.59 83.69 20.57
 70.82 62.65 89.35 84.70 83.69 20.58
 70.82 62.65 89.35 84.70 83.69 20.59
 71.01 62.65 89.96 84.86 83.67 20.60
 71.01 62.65 89.96 84.86 83.67 20.62
 71.31 63.11 90.47 85.02 83.63 20.63
 71.31 63.11 90.47 85.02 83.63 20.64
 71.71 64.44 90.85 85.21 83.54 20.65
 71.71 64.44 90.85 85.21 83.54 20.66
 71.71 64.44 90.85 85.21 83.54 20.67
 72.19 65.46 91.24 85.40 83.31 20.68
 72.19 65.46 91.24 85.40 83.31 20.69
 72.78 66.13 91.65 85.61 82.94 20.70
 72.78 66.13 91.65 85.61 82.94 20.71
 72.78 66.13 91.65 85.61 82.94 20.72
 73.22 66.67 91.73 85.64 82.60 20.73
 73.82 68.07 91.75 85.65 82.12 20.74
 73.82 68.07 91.75 85.65 82.12 20.75
 74.46 70.09 91.77 85.65 81.71 20.76
 75.01 71.94 91.78 85.65 81.44 20.77
 75.01 71.94 91.78 85.65 81.44 20.78
 75.33 73.67 91.80 85.65 81.33 20.79
 75.54 75.24 91.82 85.66 81.25 20.80
 75.54 75.24 91.82 85.66 81.25 20.81
 75.71 77.27 91.83 85.66 81.15 20.82
 75.71 77.27 91.83 85.66 81.15 20.83
 75.83 79.08 91.85 85.66 81.08 20.84
 75.83 79.08 91.85 85.66 81.08 20.85
 75.94 80.13 91.86 85.67 81.04 20.86
 75.94 80.13 91.86 85.67 81.04 20.87
 76.04 80.80 91.86 85.67 80.99 20.88
 76.04 80.80 91.86 85.67 80.99 20.89
 76.09 81.25 91.93 85.67 80.92 20.90
 76.09 81.25 91.93 85.67 80.92 20.91
 76.13 81.62 92.03 85.70 80.89 20.92
 76.11 82.08 92.17 85.72 80.87 20.93
 76.07 82.50 92.30 85.74 80.85 20.94
 76.07 82.50 92.30 85.74 80.85 20.95
 75.99 82.88 92.39 85.75 80.84 20.96
 75.86 83.21 92.49 85.76 80.83 20.97
 75.86 83.21 92.49 85.76 80.83 20.98
 75.71 83.55 92.56 85.86 80.82 20.99
 75.71 83.55 92.56 85.86 80.82 21.00
 75.54 83.85 92.66 85.92 80.81 21.01
 75.36 84.06 92.78 86.03 80.80 21.02
 75.36 84.06 92.78 86.03 80.80 21.03
 75.17 84.24 92.86 86.16 80.80 21.04
 75.17 84.24 92.86 86.16 80.80 21.05
 75.17 84.24 92.86 86.16 80.80 21.06
 74.98 84.43 92.93 86.29 80.80 21.07
 74.70 84.67 92.96 86.40 80.80 21.08
 74.70 84.67 92.96 86.40 80.80 21.09
 74.70 84.67 92.96 86.40 80.80 21.10
 74.35 84.86 93.02 86.50 80.80 21.11
 74.10 84.94 93.04 86.55 80.80 21.12
 74.10 84.94 93.04 86.55 80.80 21.13
 73.83 85.05 93.08 86.63 80.80 21.14
 73.83 85.05 93.08 86.63 80.80 21.15
 73.71 85.11 93.12 86.68 80.81 21.16
 73.71 85.11 93.12 86.68 80.81 21.17
 73.53 85.16 93.17 86.75 80.80 21.18
 73.38 85.26 93.20 86.81 80.80 21.19
 73.38 85.26 93.20 86.81 80.80 21.20
 73.23 85.33 93.24 86.86 80.80 21.21
 73.06 85.36 93.25 86.90 80.80 21.22
 73.06 85.36 93.25 86.90 80.80 21.23
 73.06 85.36 93.25 86.90 80.80 21.24
 72.90 85.40 93.27 86.93 80.80 21.25
 72.73 85.46 93.28 86.93 80.80 21.26
 72.73 85.46 93.28 86.93 80.80 21.27
 72.50 85.52 93.29 86.94 80.81 21.28
 72.50 85.52 93.29 86.94 80.81 21.29
 72.30 85.58 93.29 86.96 80.81 21.30
 72.30 85.58 93.29 86.96 80.81 21.31
 72.02 85.65 93.19 86.97 80.82 21.32
 71.83 85.69 93.03 86.98 80.83 21.33
 71.83 85.69 93.03 86.98 80.83 21.34
 71.52 85.73 92.58 86.93 80.83 21.35
 71.15 85.74 91.88 86.78 80.84 21.36
 71.15 85.74 91.88 86.78 80.84 21.37
 70.69 85.76 90.89 86.49 80.84 21.38
 70.69 85.76 90.89 86.49 80.84 21.39
 69.96 85.80 89.57 86.08 80.86 21.40
 69.21 85.82 88.49 85.35 80.89 21.41
 69.21 85.82 88.49 85.35 80.89 21.42
 68.61 85.81 87.19 84.54 80.95 21.44
 68.61 85.81 87.19 84.54 80.95 21.45
 68.11 85.78 85.97 83.62 80.98 21.46
 67.71 85.69 84.26 82.61 81.01 21.47
 67.71 85.69 84.26 82.61 81.01 21.48
 67.36 85.47 83.48 81.63 81.06 21.49
 67.36 85.47 83.48 81.63 81.06 21.50
 67.07 85.21 83.55 80.44 81.10 21.51
 67.07 85.21 83.55 80.44 81.10 21.52
 66.83 85.00 83.61 79.40 81.13 21.53
 66.83 85.00 83.61 79.40 81.13 21.54
 66.83 85.00 83.61 79.40 81.13 21.55
 66.59 84.85 83.60 78.24 81.13 21.56
 66.59 84.85 83.60 78.24 81.13 21.57
 66.42 84.79 83.60 76.69 81.14 21.58
 66.30 84.70 83.59 75.55 81.15 21.59
 66.30 84.70 83.59 75.55 81.15 21.60
 66.15 84.37 83.58 74.58 81.14 21.61
 66.15 84.37 83.58 74.58 81.14 21.62
 66.08 84.19 83.58 73.79 81.12 21.63
 65.99 83.85 82.71 73.68 81.10 21.64
 65.99 83.85 82.71 73.68 81.10 21.65
 65.86 83.41 80.12 73.50 81.05 21.66
 65.86 83.41 80.12 73.50 81.05 21.67
 65.70 82.85 79.21 72.51 80.98 21.68
 65.70 82.85 79.21 72.51 80.98 21.69
 65.57 82.34 78.85 71.89 80.87 21.70
 65.48 81.76 78.33 71.44 80.72 21.71
 65.48 81.76 78.33 71.44 80.72 21.72
 65.38 81.10 77.90 70.96 80.49 21.73
 65.38 81.10 77.90 70.96 80.49 21.74
 65.29 80.38 77.64 70.62 80.25 21.75
 65.25 79.81 77.06 70.29 80.03 21.76
 65.25 79.81 77.06 70.29 80.03 21.77
 65.21 79.04 76.57 69.89 79.74 21.78
 65.21 78.35 76.09 69.72 79.46 21.79
 65.21 78.35 76.09 69.72 79.46 21.80
 65.24 77.74 75.73 69.45 79.15 21.81
 65.24 77.74 75.73 69.45 79.15 21.82
 65.28 77.23 75.52 69.34 78.85 21.83
 65.28 77.23 75.52 69.34 78.85 21.84
 65.34 76.71 75.35 69.29 78.59 21.85
 65.49 76.25 75.23 69.20 78.33 21.87
 65.66 75.88 75.15 68.97 78.07 21.88
 65.66 75.88 75.15 68.97 78.07 21.89
 65.84 75.58 75.09 68.72 77.86 21.90
 65.84 75.58 75.09 68.72 77.86 21.91
 66.00 75.33 74.99 68.61 77.72 21.92
 66.00 75.33 74.99 68.61 77.72 21.93
 66.28 75.17 74.95 68.52 77.65 21.94
 66.62 75.06 74.92 68.44 77.63 21.95
 66.62 75.06 74.92 68.44 77.63 21.96
 66.99 74.99 74.88 68.24 77.62 21.97
 66.99 74.99 74.88 68.24 77.62 21.98
 67.42 74.91 74.85 68.23 77.60 21.99
 67.83 74.82 74.83 68.32 77.57 22.00
 67.83 74.82 74.83 68.32 77.57 22.01
 68.28 74.75 74.80 68.75 77.50 22.02
 68.88 74.66 74.78 69.56 77.43 22.03
 68.88 74.66 74.78 69.56 77.43 22.04
 69.31 74.56 74.75 70.54 77.35 22.05
 69.31 74.56 74.75 70.54 77.35 22.06
 69.67 74.37 74.94 71.59 77.26 22.07
 69.67 74.37 74.94 71.59 77.26 22.08
 70.03 74.17 75.31 72.67 77.12 22.09
 70.03 74.17 75.31 72.67 77.12 22.10
 70.35 74.09 75.69 73.60 76.97 22.11
 70.62 74.08 76.49 74.44 76.77 22.12
 70.62 74.08 76.49 74.44 76.77 22.13
 70.91 74.08 77.77 75.20 76.64 22.14
 70.91 74.08 77.77 75.20 76.64 22.15
 71.26 74.08 79.15 76.03 76.55 22.16
 71.26 74.08 79.15 76.03 76.55 22.17
 71.65 74.11 80.35 76.97 76.46 22.18
 71.65 74.11 80.35 76.97 76.46 22.19
 71.65 74.11 80.35 76.97 76.46 22.20
 72.11 74.21 81.78 78.00 76.32 22.21
 72.29 74.36 82.45 78.48 76.27 22.22
 72.29 74.36 82.45 78.48 76.27 22.23
 72.66 74.74 83.40 79.28 76.22 22.24
 72.97 75.30 84.31 80.07 76.19 22.24
 73.20 75.93 85.13 80.78 76.19 22.25
 73.20 75.93 85.13 80.78 76.19 22.27
 73.42 76.64 85.86 81.34 76.22 22.27
 73.42 76.64 85.86 81.34 76.22 22.28
 73.57 77.34 86.54 81.82 76.26 22.29
 73.74 78.09 87.14 82.26 76.35 22.30
 73.74 78.09 87.14 82.26 76.35 22.31
 73.89 78.89 87.66 82.72 76.49 22.32
 73.89 78.89 87.66 82.72 76.49 22.33
 73.99 79.66 88.13 83.18 76.68 22.34
 73.99 79.66 88.13 83.18 76.68 22.35
 74.06 80.40 88.55 83.58 76.86 22.36
 74.06 80.40 88.55 83.58 76.86 22.37
 74.08 81.10 89.04 84.03 77.04 22.38
 74.07 81.74 89.48 84.50 77.24 22.39
 74.07 81.74 89.48 84.50 77.24 22.40
 74.03 82.38 89.89 84.95 77.47 22.41
 74.00 82.90 90.19 85.28 77.67 22.42
 74.00 82.90 90.19 85.28 77.67 22.43
 73.96 83.43 90.55 85.56 77.90 22.44
 73.96 83.43 90.55 85.56 77.90 22.45
 73.92 83.89 90.81 85.80 78.09 22.46
 73.87 84.32 91.04 86.02 78.28 22.47
 73.87 84.32 91.04 86.02 78.28 22.49
 73.81 84.67 91.27 86.22 78.41 22.50
 73.76 84.96 91.45 86.36 78.55 22.51
 73.76 84.96 91.45 86.36 78.55 22.52
 73.72 85.22 91.51 86.47 78.68 22.53
 73.72 85.22 91.51 86.47 78.68 22.54
 73.70 85.42 91.56 86.61 78.81 22.55
 73.66 85.56 91.63 86.69 78.89 22.56
 73.66 85.56 91.63 86.69 78.89 22.57
 73.62 85.64 91.73 86.74 78.98 22.58
 73.62 85.64 91.73 86.74 78.98 22.59
 73.59 85.73 91.84 86.77 79.03 22.60
 73.59 85.73 91.84 86.77 79.03 22.61
 73.55 85.84 91.91 86.77 79.08 22.62
 73.55 85.84 91.91 86.77 79.08 22.63
 73.53 85.95 91.93 86.79 79.13 22.64
 73.51 86.01 91.94 86.80 79.14 22.65
 73.51 86.01 91.94 86.80 79.14 22.66
 73.49 86.08 91.95 86.77 79.15 22.67
 73.49 86.08 91.95 86.77 79.15 22.68
 73.31 86.20 91.96 86.68 79.16 22.69
 73.16 86.39 92.09 86.33 79.16 22.70
 73.16 86.39 92.09 86.33 79.16 22.71
 73.00 86.65 92.30 85.66 79.17 22.72
 73.00 86.65 92.30 85.66 79.17 22.73
 72.80 86.90 92.49 84.96 79.18 22.74
 72.62 87.07 92.59 84.42 79.21 22.75
 72.62 87.07 92.59 84.42 79.21 22.76
 72.38 87.32 92.76 83.34 79.26 22.77
 72.38 87.32 92.76 83.34 79.26 22.78
 72.00 87.61 92.96 80.98 79.35 22.79
 72.00 87.61 92.96 80.98 79.35 22.80
 71.62 87.84 93.15 77.59 79.48 22.81
 71.37 87.95 93.19 76.54 79.59 22.82
 71.37 87.95 93.19 76.54 79.59 22.83
 71.37 87.95 93.19 76.54 79.59 22.84
 71.17 88.00 93.20 76.66 79.64 22.85
 71.00 88.01 93.19 77.90 79.65 22.86
 71.00 88.01 93.19 77.90 79.65 22.87
 70.85 88.03 93.16 79.89 79.64 22.88
 70.73 88.03 93.12 80.96 79.56 22.89
 70.73 88.03 93.12 80.96 79.56 22.90
 70.60 88.06 93.03 81.36 79.35 22.91
 70.45 88.08 92.90 81.52 78.99 22.92
 70.45 88.08 92.90 81.52 78.99 22.93
 70.30 88.12 92.77 81.53 78.57 22.95
 70.18 88.17 92.63 81.55 78.14 22.96
 70.18 88.17 92.63 81.55 78.14 22.97
 70.09 88.25 92.43 81.56 77.63 22.98
 70.09 88.25 92.43 81.56 77.63 22.99
 70.02 88.33 92.02 81.60 77.00 23.00
 70.02 88.33 92.02 81.60 77.00 23.01
 69.96 88.40 91.34 81.63 76.37 23.02
 69.96 88.40 91.34 81.63 76.37 23.03
 69.92 88.44 90.84 81.62 75.90 23.04
 69.92 88.44 90.84 81.62 75.90 23.05
 69.90 88.46 90.52 81.49 75.39 23.06
 69.90 88.46 90.52 81.49 75.39 23.07
 69.88 88.48 90.22 81.25 74.91 23.08
 69.88 88.48 90.22 81.25 74.91 23.08
 69.89 88.49 89.92 80.93 74.50 23.09
 69.96 88.52 89.52 80.51 74.04 23.10
 70.06 88.54 89.00 80.12 73.64 23.11
 70.06 88.54 89.00 80.12 73.64 23.12
 70.20 88.59 88.22 79.76 73.26 23.13
 70.20 88.59 88.22 79.76 73.26 23.14
 70.36 88.65 87.58 79.38 72.94 23.15
 70.54 88.74 87.14 78.99 72.66 23.16
 70.54 88.74 87.14 78.99 72.66 23.18
 70.70 88.89 86.83 78.70 72.45 23.19
 70.70 88.89 86.83 78.70 72.45 23.20
 70.87 89.05 86.57 78.44 72.28 23.21
 71.04 89.19 86.36 78.24 72.15 23.22
 71.04 89.19 86.36 78.24 72.15 23.23
 71.20 89.33 86.17 78.09 72.07 23.24
 71.20 89.33 86.17 78.09 72.07 23.25
 71.33 89.44 86.00 77.97 72.01 23.26
 71.33 89.44 86.00 77.97 72.01 23.27
 71.33 89.44 86.00 77.97 72.01 23.28
 71.46 89.51 85.85 77.91 71.98 23.29
 71.46 89.51 85.85 77.91 71.98 23.29
 71.61 89.56 85.71 77.86 71.97 23.30
 71.78 89.57 85.63 77.82 71.98 23.31
 71.78 89.57 85.63 77.82 71.98 23.32
 71.78 89.57 85.63 77.82 71.98 23.33
 72.10 89.58 85.63 77.80 72.12 23.34
 72.10 89.58 85.63 77.80 72.12 23.35
 72.23 89.57 85.67 77.71 72.25 23.36
 72.40 89.50 85.82 77.70 72.52 23.37
 72.40 89.50 85.82 77.70 72.52 23.38
 72.55 89.32 86.02 77.73 72.87 23.39
 72.55 89.32 86.02 77.73 72.87 23.40
 72.67 89.04 86.44 77.86 73.25 23.41
 72.72 88.59 87.07 77.87 73.64 23.42
 72.72 88.59 87.07 77.87 73.64 23.43
 72.75 88.15 87.94 77.83 74.05 23.44
 72.75 87.87 88.97 77.82 74.49 23.45
 72.75 87.87 88.97 77.82 74.49 23.46
 72.75 87.87 88.97 77.82 74.49 23.47
 72.72 87.75 89.74 77.87 74.88 23.48
 72.72 87.75 89.74 77.87 74.88 23.49
 72.69 87.72 90.25 78.13 75.16 23.50
 72.69 87.72 90.25 78.13 75.16 23.51
 72.64 87.69 90.52 78.73 75.29 23.52
 72.64 87.69 90.52 78.73 75.29 23.53
 72.58 87.63 90.80 79.57 75.34 23.54
 72.58 87.63 90.80 79.57 75.34 23.55
 72.56 87.57 91.02 80.73 75.35 23.56
 72.56 87.57 91.02 80.73 75.35 23.57
 72.53 87.54 91.54 81.93 75.39 23.58
 72.53 87.54 91.54 81.93 75.39 23.59
 72.52 87.53 91.80 82.58 75.43 23.60
 72.50 87.54 92.16 83.36 75.53 23.62
 72.50 87.56 92.57 84.01 75.72 23.63
 72.50 87.56 92.57 84.01 75.72 23.64
 72.49 87.60 92.96 84.59 75.97 23.65
 72.49 87.60 92.96 84.59 75.97 23.66
 72.47 87.65 93.29 85.02 76.25 23.67
 72.47 87.65 93.29 85.02 76.25 23.68
 72.45 87.70 93.59 85.36 76.49 23.69
 72.45 87.70 93.59 85.36 76.49 23.70
 72.45 87.76 93.88 85.66 76.73 23.71
 72.45 87.82 94.14 85.90 76.98 23.72
 72.45 87.82 94.14 85.90 76.98 23.73
 72.45 87.82 94.14 85.90 76.98 23.74
 72.46 87.89 94.40 86.15 77.21 23.75
 72.49 87.97 94.58 86.37 77.43 23.76
 72.50 88.07 94.77 86.64 77.64 23.77
 72.50 88.07 94.77 86.64 77.64 23.78
 72.52 88.18 94.95 86.84 77.81 23.79
 72.52 88.18 94.95 86.84 77.81 23.80
 72.55 88.27 95.12 87.02 77.96 23.81
 72.57 88.35 95.25 87.17 78.09 23.82
 72.57 88.35 95.25 87.17 78.09 23.83
 72.60 88.41 95.35 87.33 78.24 23.84
 72.60 88.41 95.35 87.33 78.24 23.85
 72.60 88.50 95.43 87.47 78.36 23.86
 72.60 88.60 95.50 87.57 78.52 23.87
 72.60 88.60 95.50 87.57 78.52 23.88
 72.59 88.69 95.57 87.67 78.63 23.89
 72.59 88.69 95.57 87.67 78.63 23.90
 72.56 88.75 95.63 87.76 78.71 23.91
 72.56 88.75 95.63 87.76 78.71 23.92
 72.47 88.83 95.68 87.84 78.78 23.93
 72.47 88.83 95.68 87.84 78.78 23.94
 72.47 88.83 95.68 87.84 78.78 23.95
 72.31 88.87 95.76 87.92 78.80 23.96
 72.06 88.91 95.83 88.02 78.81 23.97
 71.73 88.95 95.90 88.13 78.80 23.98
 71.73 88.95 95.90 88.13 78.80 23.99
 71.43 88.96 95.96 88.22 78.77 24.00
 71.04 88.97 96.01 88.27 78.71 24.01
 71.04 88.97 96.01 88.27 78.71 24.02
 71.04 88.97 96.01 88.27 78.71 24.03
 70.70 88.99 96.12 88.34 78.49 24.04
 70.70 88.99 96.12 88.34 78.49 24.05
 70.39 88.99 96.22 88.36 78.23 24.06
 70.14 89.00 96.38 88.38 77.75 24.07
 70.14 89.00 96.38 88.38 77.75 24.08
 69.94 89.09 96.66 88.50 77.09 24.09
 69.72 89.21 96.96 88.78 76.38 24.10
 69.72 89.21 96.96 88.78 76.38 24.11
 69.48 89.31 97.24 88.99 75.94 24.12
 69.28 89.38 97.57 89.08 75.42 24.13
 69.28 89.38 97.57 89.08 75.42 24.14
 69.11 89.50 98.04 89.27 74.29 24.15
 69.11 89.50 98.04 89.27 74.29 24.16
 69.04 89.68 98.50 89.75 72.92 24.17
 69.04 89.68 98.50 89.75 72.92 24.18
 69.02 89.83 98.78 90.17 71.92 24.19
 69.02 89.83 98.78 90.17 71.92 24.20
 68.99 89.94 99.00 90.38 71.27 24.21
 68.99 90.01 99.19 90.46 70.92 24.22
 68.99 90.06 99.32 90.48 70.67 24.23
 68.99 90.06 99.32 90.48 70.67 24.24
 68.99 90.10 99.39 90.49 70.51 24.25
 68.99 90.10 99.39 90.49 70.51 24.26
 68.99 90.12 99.44 90.50 70.36 24.27
 68.98 90.14 99.48 90.49 70.21 24.28
 68.98 90.14 99.48 90.49 70.21 24.29
 68.97 90.14 99.49 90.50 70.05 24.30
 68.97 90.14 99.49 90.50 70.05 24.31
 68.97 90.15 99.51 90.50 69.88 24.32
 68.97 90.15 99.51 90.50 69.88 24.33
 68.97 90.15 99.53 90.51 69.71 24.34
 68.97 90.15 99.53 90.51 69.71 24.35
 68.97 90.16 99.54 90.50 69.53 24.36
 68.97 90.16 99.56 90.49 69.39 24.37
 68.97 90.16 99.56 90.49 69.39 24.38
 68.98 90.16 99.57 90.46 69.25 24.39
 68.98 90.16 99.57 90.46 69.25 24.40
 68.98 90.16 99.57 90.46 69.25 24.41
 68.98 90.17 99.58 90.39 69.12 24.41
 68.98 90.17 99.58 90.39 69.12 24.42
 68.94 90.18 99.59 90.27 69.00 24.43
 68.91 90.17 99.59 90.17 68.93 24.44
 68.87 90.16 99.60 90.17 68.84 24.45
 68.87 90.16 99.60 90.17 68.84 24.46
 68.80 90.13 99.59 90.27 68.76 24.47
 68.74 90.08 99.57 90.41 68.68 24.48
 68.74 90.08 99.57 90.41 68.68 24.49
 68.69 90.01 99.57 90.48 68.60 24.50
 68.69 90.01 99.57 90.48 68.60 24.51
 68.64 89.95 99.56 90.55 68.49 24.52
 68.61 89.88 99.55 90.68 68.38 24.53
 68.61 89.88 99.55 90.68 68.38 24.54
 68.58 89.83 99.54 90.78 68.26 24.55
 68.58 89.83 99.54 90.78 68.26 24.56
 68.57 89.81 99.54 90.86 68.14 24.57
 68.57 89.80 99.54 90.90 68.03 24.58
 68.57 89.80 99.54 90.90 68.03 24.59
 68.56 89.79 99.53 90.95 67.92 24.60
 68.56 89.79 99.53 90.95 67.92 24.61
 68.56 89.77 99.53 91.00 67.83 24.62
 68.56 89.77 99.53 91.00 67.83 24.63
 68.56 89.76 99.53 91.02 67.75 24.64
 68.56 89.76 99.53 91.02 67.75 24.65
 68.56 89.74 99.53 91.04 67.70 24.66
 68.55 89.71 99.53 91.05 67.66 24.67
 68.55 89.71 99.53 91.05 67.66 24.68
 68.56 89.69 99.53 91.08 67.63 24.69
 68.56 89.69 99.53 91.08 67.63 24.70
 68.61 89.66 99.54 91.10 67.62 24.71
 68.61 89.66 99.54 91.10 67.62 24.72
 68.79 89.66 99.60 91.07 67.61 24.73
 69.03 89.67 99.65 91.05 67.60 24.74
 69.03 89.67 99.65 91.05 67.60 24.75
 69.24 89.69 99.73 91.06 67.59 24.76
 69.46 89.75 99.85 91.20 67.58 24.77
 69.46 89.75 99.85 91.20 67.58 24.78
 69.46 89.75 99.85 91.20 67.58 24.79
 69.56 89.80 99.91 91.31 67.69 24.80
 69.57 89.87 99.96 91.39 67.89 24.81
 69.57 89.87 99.96 91.39 67.89 24.82
 69.53 89.89 99.97 91.41 69.30 24.83
 69.53 89.89 99.97 91.41 69.30 24.84
 69.43 89.90 99.97 91.41 72.43 24.85
 69.43 89.90 99.97 91.41 72.43 24.86
 69.35 89.90 99.97 91.41 74.78 24.87
 69.30 89.92 99.98 91.42 76.14 24.88
 69.27 89.94 99.98 91.43 77.07 24.89
 69.27 89.94 99.98 91.43 77.07 24.90
 69.26 90.04 99.99 91.46 77.90 24.91
 69.26 90.04 99.99 91.46 77.90 24.92
 69.24 90.14 99.99 91.55 78.69 24.93
 69.24 90.14 99.99 91.55 78.69 24.94
 69.23 90.24 99.99 91.64 79.26 24.95
 69.22 90.33 100.00 91.72 79.64 24.96
 69.22 90.33 100.00 91.72 79.64 24.97
 69.22 90.47 100.00 91.77 79.99 24.98
 69.22 90.47 100.00 91.77 79.99 24.99
 69.23 90.61 100.00 91.84 80.26 25.00
 69.23 90.61 100.00 91.84 80.26 25.01
 69.26 90.76 100.00 91.92 80.50 25.02
 69.26 90.76 100.00 91.92 80.50 25.03
 69.33 90.89 100.01 92.01 80.73 25.04
 69.33 90.89 100.01 92.01 80.73 25.05
 69.51 91.03 100.02 92.07 80.92 25.06
 69.77 91.19 100.02 92.18 81.12 25.07
 69.77 91.19 100.02 92.18 81.12 25.08
 70.25 91.34 100.03 92.28 81.28 25.09
 70.80 91.41 100.02 92.34 81.58 25.10
 70.80 91.41 100.02 92.34 81.58 25.11
 71.03 91.46 100.00 92.36 82.00 25.12
 71.29 91.47 99.92 92.36 82.24 25.14
 71.29 91.47 99.92 92.36 82.24 25.15
 71.91 91.02 99.92 92.26 82.32 25.16
 73.05 90.58 99.91 91.86 82.36 25.17
 73.05 90.58 99.91 91.86 82.36 25.18
 74.38 88.42 75.31 91.52 82.29 25.19
 74.99 86.61 73.85 90.76 80.17 25.20
 74.99 86.61 73.85 90.76 80.17 25.21
 76.63 85.96 73.92 90.43 79.74 25.22
 76.63 85.96 73.92 90.43 79.74 25.23
 77.27 79.24 77.79 89.60 79.59 25.24
 77.27 79.24 77.79 89.60 79.59 25.25
 83.38 94.83 97.64 91.87 82.23 25.26
 87.02 102.97 105.76 96.16 85.35 25.27
 87.02 102.97 105.76 96.16 85.35 25.28
 87.02 102.97 105.76 96.16 85.35 25.29
 87.84 104.56 107.11 97.25 86.20 25.30
 87.84 104.56 107.11 97.25 86.20 25.31
 25.32
 25.33
 25.34
 25.35
 25.36
 25.37
 25.38
 25.39
 25.40
 25.41
 25.42
 25.43
 25.44
 25.45
 25.46
 25.47
 25.48
 25.49
 25.50
 25.51
 25.53
 25.54
 25.55
 25.56
 25.57
 25.58
 25.59
 25.60
 25.61
 25.62
 25.63
 25.64
 25.65
 25.66
 25.67
 25.68
 25.69
 25.70
 25.71
 25.72
 25.73
 25.74
 25.74
 25.75
 25.76
 25.77
 25.78
 25.79
 25.80
 25.81
 25.82
 25.83
 25.84
 25.85
 25.86
 25.87
 25.88
 25.89
 25.90
 25.91
 25.92
 25.93
 25.94
 25.95
 25.96
 25.97
 25.98
 25.99
 26.00
 26.01
 26.02
 26.03
 26.04
 26.05
 26.06
 26.08
 26.09
 26.10
 26.11
 26.12
 26.13
 26.14
 26.15
 26.16
 26.17
 26.18
 26.19
 26.20
 26.21
 26.22
 26.23
 26.24
 26.26
 26.27
 26.28
 26.29
 26.30
 26.31
 26.32
 26.33
 26.34
 26.35
 26.36
 26.37
 26.38
 26.39
 26.40
 26.41
 26.42
 26.43
 26.44
 26.46
 26.47
 26.48
 26.49
 26.50
 26.51
 26.52
 26.53
 26.54
 26.55
 26.56
 26.57
 26.58
 26.59
 26.60
 26.61
 26.62
 26.63
 26.64
 26.65
 26.66
 26.67
 26.68
 26.69
 26.70
 26.71
 26.72
 26.73
 26.74
 26.75
 26.76
 26.77
 26.78
 26.79
 26.80
 26.81
 26.82
 26.83
 26.84
 26.85
 26.86
 26.87
 26.88
 26.89
 26.90
 26.91
 26.92
 26.93
 26.94
 26.95
 26.96
 26.97
 26.98
 26.99
 27.00
 27.01
 27.02
 27.03
 27.04
 27.06
 27.07
 27.08
 27.09
 27.10
 27.11
 27.12
 27.13
 27.14
 27.15
 27.16
 27.17
 27.18
 27.19
 27.20
 27.21
 27.22
 27.23
 27.24
 27.25
 27.27
 27.28
 27.29
 27.29
 27.30
 27.31
 27.32
 27.34
 27.35
 27.36
 27.37
 27.38
 27.39
 27.40
 27.41
 27.42
 27.43
 27.44
 27.45
 27.46
 27.47
 27.48
 27.49
 27.50
 27.51
 27.52
 27.53
 27.54
 27.55
 27.56
 27.57
 27.58
 27.59
 27.60
 27.61
 27.62
 27.63
 27.64
 27.65
 27.66
 27.67
 27.68
 27.69
 27.70
 27.71
 27.72
 27.73
 27.74
 27.75
 27.76
 27.77
 27.78
 27.80
 27.80
 27.81
 27.82
 27.83
 27.84
 27.85
 27.86
 27.87
 27.88
 27.89
 27.90
 27.91
 27.92
 27.93
 27.94
 27.95
 27.96
 27.97
 27.98
 27.98
 27.99
 28.00
 28.01
 28.02
 28.03
 28.04
 28.05
 28.06
 28.07
 55.99 82.30 97.92 90.97 80.35 28.08
 55.99 82.30 97.92 90.97 80.35 28.09
 55.92 82.28 97.89 90.97 80.35 28.10
 55.92 82.28 97.89 90.97 80.35 28.11
 55.90 82.24 97.87 90.97 80.35 28.12
 55.83 82.23 97.85 90.97 80.35 28.13
 55.83 82.23 97.85 90.97 80.35 28.14
 55.69 82.21 97.81 90.95 80.34 28.15
 55.59 82.17 97.78 90.93 80.35 28.16
 55.59 82.17 97.78 90.93 80.35 28.17
 55.52 82.34 97.74 90.88 80.37 28.18
 55.52 82.34 97.74 90.88 80.37 28.19
 55.43 82.52 97.73 90.82 80.40 28.20
 55.43 82.52 97.73 90.82 80.40 28.21
 55.41 82.69 97.71 90.77 80.44 28.22
 55.37 82.85 97.69 90.72 80.49 28.23
 55.37 82.85 97.69 90.72 80.49 28.24
 55.39 83.03 97.67 90.66 80.55 28.25
 55.39 83.03 97.67 90.66 80.55 28.26
 55.40 83.24 97.64 90.62 80.61 28.27
 55.40 83.24 97.64 90.62 80.61 28.28
 55.49 83.47 97.59 90.59 80.68 28.29
 55.65 84.24 97.55 90.57 80.76 28.30
 55.65 84.24 97.55 90.57 80.76 28.31
 55.65 84.24 97.55 90.57 80.76 28.32
 55.82 85.48 97.49 90.55 80.83 28.33
 56.01 86.49 97.43 90.55 80.91 28.34
 56.01 86.49 97.43 90.55 80.91 28.35
 56.25 87.10 97.38 90.55 80.98 28.36
 56.61 87.42 97.33 90.55 81.04 28.37
 56.61 87.42 97.33 90.55 81.04 28.38
 56.94 87.65 97.29 90.56 81.11 28.39
 57.32 87.83 97.26 90.56 81.18 28.40
 57.32 87.83 97.26 90.56 81.18 28.41
 57.72 88.00 97.21 90.57 81.23 28.42
 58.12 88.13 97.17 90.57 81.29 28.43
 58.12 88.13 97.17 90.57 81.29 28.44
 58.54 88.25 97.14 90.57 81.33 28.45
 58.54 88.25 97.14 90.57 81.33 28.46
 58.90 88.35 97.13 90.57 81.37 28.47
 59.31 88.45 97.11 90.58 81.41 28.48
 59.31 88.45 97.11 90.58 81.41 28.49
 59.64 88.53 97.10 90.59 81.45 28.50
 59.64 88.53 97.10 90.59 81.45 28.51
 59.97 88.61 97.08 90.60 81.49 28.52
 59.97 88.61 97.08 90.60 81.49 28.53
 60.33 88.68 97.06 90.61 81.54 28.54
 60.33 88.68 97.06 90.61 81.54 28.55
 60.33 88.68 97.06 90.61 81.54 28.56
 60.93 88.77 97.03 90.62 81.60 28.57
 61.24 88.81 97.02 90.63 81.63 28.58
 61.24 88.81 97.02 90.63 81.63 28.59
 61.65 88.86 97.00 90.63 81.68 28.60
 61.65 88.86 97.00 90.63 81.68 28.61
 61.98 88.92 96.98 90.63 81.72 28.62
 62.24 88.99 96.96 90.64 81.76 28.63
 62.24 88.99 96.96 90.64 81.76 28.64
 62.47 89.06 96.93 90.65 81.80 28.65
 62.47 89.06 96.93 90.65 81.80 28.66
 62.67 89.13 96.90 90.65 81.85 28.67
 62.67 89.13 96.90 90.65 81.85 28.68
 62.84 89.21 96.88 90.65 81.89 28.69
 62.96 89.27 96.86 90.64 81.92 28.70
 62.96 89.27 96.86 90.64 81.92 28.71
 63.05 89.32 96.84 90.64 81.96 28.72
 63.05 89.32 96.84 90.64 81.96 28.73
 63.17 89.37 96.82 90.64 82.00 28.74
 63.17 89.37 96.82 90.64 82.00 28.75
 63.17 89.37 96.82 90.64 82.00 28.76
 63.24 89.43 96.81 90.64 82.03 28.77
 63.24 89.43 96.81 90.64 82.03 28.78
 63.24 89.43 96.81 90.64 82.03 28.79
 63.24 89.43 96.81 90.64 82.03 28.80
 63.20 89.50 96.79 90.63 82.07 28.81
 63.10 89.56 96.76 90.63 82.10 28.82
 62.71 89.60 96.75 90.62 82.13 28.83
 62.00 89.64 96.73 90.61 82.15 28.84
 62.00 89.64 96.73 90.61 82.15 28.85
 60.96 89.68 96.72 90.60 82.17 28.86
 59.57 89.69 96.69 90.59 82.18 28.87
 59.57 89.69 96.69 90.59 82.18 28.88
 58.12 89.71 96.67 90.57 82.19 28.89
 58.12 89.71 96.67 90.57 82.19 28.90
 55.88 89.73 96.65 90.57 82.18 28.91
 52.69 89.76 96.64 90.56 82.18 28.92
 52.69 89.76 96.64 90.56 82.18 28.93
 49.79 89.80 96.63 90.56 82.18 28.94
 49.79 89.80 96.63 90.56 82.18 28.95
 48.14 89.83 96.63 90.56 82.19 28.96
 48.14 89.83 96.63 90.56 82.19 28.97
 48.14 89.83 96.63 90.56 82.19 28.98
 48.14 89.83 96.63 90.56 82.19 28.99
 46.66 89.86 96.63 90.56 82.19 29.00
 46.16 89.88 96.62 90.56 82.19 29.01
 45.39 89.90 96.62 90.56 82.19 29.02
 44.68 89.90 96.62 90.56 82.19 29.03
 43.91 89.91 96.61 90.57 82.20 29.04
 43.91 89.91 96.61 90.57 82.20 29.05
 43.67 89.90 96.60 90.57 82.20 29.07
 43.51 89.86 96.59 90.57 82.20 29.08
 43.51 89.86 96.59 90.57 82.20 29.09
 43.45 89.80 96.56 90.57 82.20 29.10
 43.45 89.80 96.56 90.57 82.20 29.11
 43.34 89.69 96.51 90.57 82.20 29.12
 43.29 89.54 96.46 90.57 82.19 29.13
 43.29 89.54 96.46 90.57 82.19 29.14
 43.32 89.37 96.39 90.57 82.19 29.15
 43.32 89.37 96.39 90.57 82.19 29.16
 43.32 89.37 96.39 90.57 82.19 29.17
 43.44 89.18 96.34 90.57 82.17 29.18
 43.52 88.97 96.29 90.56 82.16 29.19
 43.52 88.97 96.29 90.56 82.16 29.20
 43.52 88.97 96.29 90.56 82.16 29.21
 43.63 88.78 96.23 90.54 82.14 29.22
 43.71 88.60 96.16 90.53 82.12 29.23
 43.82 88.42 96.07 90.53 82.08 29.24
 43.91 88.23 95.98 90.51 82.05 29.25
 43.91 88.23 95.98 90.51 82.05 29.26
 43.99 88.05 95.89 90.47 82.00 29.27
 43.99 88.05 95.89 90.47 82.00 29.28
 44.06 87.88 95.77 90.45 81.96 29.29
 44.06 87.88 95.77 90.45 81.96 29.30
 44.14 87.74 95.65 90.41 81.91 29.31
 44.14 87.74 95.65 90.41 81.91 29.32
 44.23 87.60 95.55 90.38 81.86 29.33
 44.23 87.60 95.55 90.38 81.86 29.34
 44.31 87.44 95.47 90.34 81.81 29.35
 44.36 87.30 95.41 90.30 81.76 29.36
 44.36 87.30 95.41 90.30 81.76 29.37
 44.40 87.15 95.35 90.26 81.70 29.38
 44.40 87.15 95.35 90.26 81.70 29.39
 44.40 87.15 95.35 90.26 81.70 29.40
 44.44 87.03 95.29 90.20 81.64 29.41
 44.48 86.93 95.24 90.15 81.59 29.42
 44.48 86.93 95.24 90.15 81.59 29.43
 44.59 86.83 95.19 90.10 81.55 29.44
 44.59 86.83 95.19 90.10 81.55 29.45
 44.70 86.74 95.14 90.05 81.49 29.46
 44.82 86.66 95.09 90.01 81.44 29.47
 44.82 86.66 95.09 90.01 81.44 29.48
 45.10 86.51 95.00 89.92 81.35 29.49
 45.10 86.51 95.00 89.92 81.35 29.50
 45.10 86.51 95.00 89.92 81.35 29.51
 45.27 86.46 94.95 89.87 81.33 29.52
 45.44 86.42 94.91 89.84 81.31 29.53
 45.60 86.40 94.86 89.81 81.29 29.54
 45.60 86.40 94.86 89.81 81.29 29.55
 45.68 86.39 94.83 89.79 81.27 29.56
 45.68 86.39 94.83 89.79 81.27 29.57
 45.76 86.39 94.81 89.77 81.27 29.58
 45.76 86.39 94.81 89.77 81.27 29.59
 45.82 86.39 94.80 89.77 81.26 29.60
 45.82 86.39 94.80 89.77 81.26 29.62
 45.87 86.39 94.79 89.76 81.25 29.62
 45.97 86.41 94.79 89.74 81.25 29.63
 45.97 86.41 94.79 89.74 81.25 29.64
 46.11 86.45 94.79 89.72 81.24 29.65
 46.11 86.45 94.79 89.72 81.24 29.66
 46.22 86.48 94.78 89.71 81.24 29.67
 46.22 86.52 94.78 89.69 81.24 29.68
 46.22 86.52 94.78 89.69 81.24 29.69
 45.86 86.55 94.78 89.67 81.24 29.70
 45.86 86.55 94.78 89.67 81.24 29.71
 45.81 86.59 94.78 89.66 81.23 29.72
 46.05 86.63 94.78 89.64 81.22 29.73
 46.05 86.63 94.78 89.64 81.22 29.74
 46.43 86.67 94.78 89.63 81.22 29.75
 46.43 86.67 94.78 89.63 81.22 29.76
 46.84 86.69 94.78 89.62 81.22 29.77
 46.84 86.69 94.78 89.62 81.22 29.78
 47.30 86.72 94.77 89.60 81.22 29.79
 47.90 86.74 94.77 89.58 81.23 29.80
 47.90 86.74 94.77 89.58 81.23 29.81
 48.59 86.76 94.77 89.57 81.25 29.82
 48.59 86.76 94.77 89.57 81.25 29.83
 49.48 86.78 94.76 89.56 81.26 29.84
 50.33 86.79 94.74 89.55 81.28 29.85
 50.33 86.79 94.74 89.55 81.28 29.86
 50.33 86.79 94.74 89.55 81.28 29.87
 51.28 86.79 94.74 89.54 81.30 29.88
 51.28 86.79 94.74 89.54 81.30 29.89
 52.09 86.80 94.72 89.53 81.32 29.90
 52.09 86.80 94.72 89.53 81.32 29.91
 52.90 86.80 94.71 89.53 81.34 29.92
 53.76 86.80 94.70 89.52 81.36 29.93
 54.52 86.80 94.69 89.51 81.38 29.94
 54.52 86.80 94.69 89.51 81.38 29.95
 55.46 86.81 94.68 89.50 81.40 29.96
 56.46 86.81 94.67 89.49 81.41 29.97
 56.46 86.81 94.67 89.49 81.41 29.98
 57.32 86.81 94.66 89.49 81.44 29.99
 57.32 86.81 94.66 89.49 81.44 30.00
 57.85 86.81 94.65 89.48 81.46 30.01
 58.20 86.82 94.64 89.48 81.47 30.02
 58.20 86.82 94.64 89.48 81.47 30.03
 58.95 86.82 94.64 89.47 81.49 30.04
 58.95 86.82 94.64 89.47 81.49 30.05
 59.50 86.82 94.63 89.48 81.51 30.06
 59.50 86.82 94.63 89.48 81.51 30.07
 59.88 86.82 94.63 89.48 81.53 30.08
 59.88 86.82 94.63 89.48 81.53 30.09
 60.29 86.82 94.62 89.48 81.56 30.10
 60.29 86.82 94.62 89.48 81.56 30.11
 60.65 86.82 94.62 89.48 81.58 30.12
 60.95 86.82 94.62 89.48 81.59 30.13
 61.18 86.82 94.62 89.48 81.61 30.14
 61.18 86.82 94.62 89.48 81.61 30.15
 61.41 86.81 94.61 89.48 81.63 30.16
 61.41 86.81 94.61 89.48 81.63 30.17
 61.62 86.81 94.61 89.48 81.65 30.18
 61.90 86.80 94.61 89.49 81.67 30.19
 61.90 86.80 94.61 89.49 81.67 30.20
 62.21 86.78 94.61 89.49 81.68 30.21
 62.21 86.78 94.61 89.49 81.68 30.22
 62.40 86.76 94.62 89.49 81.71 30.23
 62.53 86.74 94.62 89.50 81.72 30.24
 62.53 86.74 94.62 89.50 81.72 30.25
 62.64 86.71 94.62 89.50 81.74 30.26
 62.64 86.71 94.62 89.50 81.74 30.27
 62.77 86.66 94.62 89.51 81.75 30.28
 62.77 86.66 94.62 89.51 81.75 30.30
 62.77 86.66 94.62 89.51 81.75 30.31
 62.87 86.51 94.67 89.57 81.75 30.32
 62.96 86.24 94.76 89.66 81.76 30.33
 62.96 86.24 94.76 89.66 81.76 30.34
 63.01 86.19 94.78 89.67 81.78 30.35
 63.07 86.13 94.79 89.68 81.79 30.36
 63.07 86.13 94.79 89.68 81.79 30.37
 63.10 85.99 94.81 89.69 81.81 30.38
 63.09 85.65 94.84 89.74 81.82 30.39
 63.09 85.65 94.84 89.74 81.82 30.40
 62.96 84.99 94.89 89.81 81.84 30.41
 62.76 84.11 94.95 89.92 81.84 30.42
 62.76 84.11 94.95 89.92 81.84 30.43
 62.55 82.96 95.04 90.05 81.87 30.44
 62.55 82.96 95.04 90.05 81.87 30.45
 62.36 81.27 95.14 90.16 81.89 30.46
 62.36 81.27 95.14 90.16 81.89 30.47
 62.22 80.43 95.15 90.20 81.93 30.48
 62.10 78.05 95.18 90.26 81.94 30.49
 62.10 78.05 95.18 90.26 81.94 30.50
 61.93 74.06 95.19 90.32 81.94 30.51
 61.93 74.06 95.19 90.32 81.94 30.52
 61.79 72.37 95.19 90.32 81.94 30.53
 61.79 72.37 95.19 90.32 81.94 30.54
 61.62 70.60 95.19 90.32 81.93 30.55
 61.62 70.60 95.19 90.32 81.93 30.56
 61.52 69.91 95.17 90.30 81.92 30.57
 61.52 69.91 95.17 90.30 81.92 30.58
 61.20 68.66 94.88 90.09 81.85 30.59
 61.20 68.66 94.88 90.09 81.85 30.60
 61.01 67.84 94.66 89.94 81.80 30.61
 60.86 66.98 94.37 89.76 81.70 30.62
 60.86 66.98 94.37 89.76 81.70 30.63
 60.75 66.20 94.06 89.49 81.54 30.64
 60.75 66.20 94.06 89.49 81.54 30.65
 60.63 65.70 93.71 89.17 81.35 30.66
 60.54 65.36 93.29 88.78 81.16 30.67
 60.54 65.36 93.29 88.78 81.16 30.68
 60.47 65.00 92.86 88.37 80.94 30.69
 60.47 65.00 92.86 88.37 80.94 30.70
 60.41 64.60 92.41 87.98 80.66 30.71
 60.41 64.60 92.41 87.98 80.66 30.72
 60.35 64.21 91.93 87.59 80.32 30.73
 60.30 63.83 91.40 87.15 79.99 30.74
 60.30 63.83 91.40 87.15 79.99 30.75
 60.30 63.83 91.40 87.15 79.99 30.76
 60.25 63.46 90.87 86.66 79.61 30.77
 60.20 63.07 90.34 86.18 79.23 30.78
 60.20 63.07 90.34 86.18 79.23 30.79
 60.16 62.68 89.85 85.68 78.82 30.80
 60.13 62.37 89.39 85.20 78.42 30.81
 60.13 62.37 89.39 85.20 78.42 30.82
 60.11 62.11 88.95 84.78 78.00 30.83
 60.11 62.11 88.95 84.78 78.00 30.84
 60.09 61.86 88.54 84.37 77.65 30.85
 60.10 61.60 88.16 83.96 77.33 30.86
 60.10 61.60 88.16 83.96 77.33 30.87
 60.11 61.39 87.82 83.63 77.00 30.88
 60.13 61.11 87.47 83.31 76.75 30.89
 60.13 61.11 87.47 83.31 76.75 30.90
 60.18 60.79 87.16 83.14 76.55 30.91
 60.18 60.79 87.16 83.14 76.55 30.92
 60.25 60.46 86.91 82.96 76.45 30.93
 60.25 60.46 86.91 82.96 76.45 30.94
 60.37 60.16 86.78 82.84 76.36 30.95
 60.37 60.16 86.78 82.84 76.36 30.96
 60.52 59.92 86.68 82.70 76.29 30.97
 60.52 59.92 86.68 82.70 76.29 30.98
 60.52 59.92 86.68 82.70 76.29 30.99
 60.71 59.68 86.61 82.57 76.19 31.00
 60.82 59.45 86.57 82.48 76.14 31.01
 60.82 59.45 86.57 82.48 76.14 31.02
 60.98 59.13 86.54 82.36 76.06 31.03
 61.18 58.80 86.52 82.28 75.94 31.04
 61.54 58.37 86.51 82.25 75.88 31.05
 61.99 57.95 86.51 82.24 75.83 31.06
 61.99 57.95 86.51 82.24 75.83 31.07
 62.38 57.70 86.53 82.25 75.82 31.09
 62.65 57.63 86.57 82.25 75.84 31.10
 62.65 57.63 86.57 82.25 75.84 31.11
 62.93 57.60 86.64 82.26 75.87 31.12
 62.93 57.60 86.64 82.26 75.87 31.13
 63.23 57.76 86.69 82.26 75.92 31.14
 63.23 57.76 86.69 82.26 75.92 31.15
 63.60 58.23 86.71 82.26 75.93 31.16
 64.08 59.58 86.73 82.15 75.94 31.17
 64.08 59.58 86.73 82.15 75.94 31.18
 64.08 59.58 86.73 82.15 75.94 31.19
 64.50 61.50 86.74 82.09 75.90 31.20
 64.94 63.71 86.75 81.99 75.87 31.21
 64.94 63.71 86.75 81.99 75.87 31.22
 65.32 65.31 86.77 81.93 75.87 31.23
 65.32 65.31 86.77 81.93 75.87 31.24
 65.92 66.98 86.80 81.88 75.85 31.25
 66.38 68.36 86.83 81.88 75.85 31.26
 66.38 68.36 86.83 81.88 75.85 31.27
 66.80 70.01 86.86 81.88 75.90 31.28
 66.80 70.01 86.86 81.88 75.90 31.29
 67.08 71.60 86.89 81.89 75.93 31.30
 67.27 73.40 86.94 81.92 75.97 31.31
 67.27 73.40 86.94 81.92 75.97 31.32
 67.37 75.19 87.01 81.95 76.02 31.33
 67.37 75.19 87.01 81.95 76.02 31.34
 67.43 76.63 87.10 82.02 76.07 31.35
 67.45 77.62 87.25 82.12 76.12 31.36
 67.45 77.62 87.25 82.12 76.12 31.37
 67.44 78.30 87.42 82.21 76.19 31.38
 67.44 78.30 87.42 82.21 76.19 31.39
 67.44 78.82 87.64 82.33 76.26 31.40
 67.44 78.82 87.64 82.33 76.26 31.41
 67.42 79.26 87.83 82.44 76.33 31.42
 67.40 79.64 87.99 82.57 76.41 31.43
 67.40 79.64 87.99 82.57 76.41 31.44
 67.38 79.96 88.13 82.70 76.48 31.45
 67.36 80.25 88.25 82.84 76.58 31.46
 67.36 80.25 88.25 82.84 76.58 31.47
 67.32 80.51 88.37 82.97 76.66 31.48
 67.32 80.51 88.37 82.97 76.66 31.49
 67.30 80.75 88.49 83.09 76.74 31.50
 67.23 81.00 88.63 83.21 76.82 31.51
 67.23 81.00 88.63 83.21 76.82 31.52
 67.16 81.23 88.74 83.34 76.92 31.53
 67.16 81.23 88.74 83.34 76.92 31.54
 67.09 81.46 88.87 83.46 77.03 31.55
 67.09 81.46 88.87 83.46 77.03 31.56
 67.02 81.67 88.99 83.55 77.15 31.57
 66.98 81.85 89.09 83.64 77.24 31.58
 66.98 81.85 89.09 83.64 77.24 31.59
 66.94 82.02 89.19 83.75 77.33 31.60
 66.94 82.02 89.19 83.75 77.33 31.61
 66.85 82.17 89.27 83.84 77.39 31.62
 66.85 82.17 89.27 83.84 77.39 31.63
 66.77 82.31 89.34 83.92 77.47 31.64
 66.67 82.42 89.44 84.01 77.53 31.65
 66.67 82.42 89.44 84.01 77.53 31.66
 66.55 82.52 89.51 84.09 77.61 31.67
 66.46 82.59 89.60 84.13 77.69 31.68
 66.46 82.59 89.60 84.13 77.69 31.69
 66.37 82.66 89.65 84.19 77.75 31.70
 66.22 82.71 89.70 84.25 77.79 31.71
 66.22 82.71 89.70 84.25 77.79 31.72
 66.07 82.75 89.74 84.31 77.85 31.73
 66.07 82.75 89.74 84.31 77.85 31.75
 65.90 82.79 89.78 84.36 77.89 31.76
 65.69 82.83 89.80 84.39 77.93 31.77
 65.69 82.83 89.80 84.39 77.93 31.78
 65.48 82.87 89.82 84.43 77.94 31.79
 65.48 82.87 89.82 84.43 77.94 31.80
 65.28 82.91 89.84 84.47 77.96 31.81
 65.28 82.91 89.84 84.47 77.96 31.82
 65.09 82.96 89.86 84.51 77.97 31.83
 65.09 82.96 89.86 84.51 77.97 31.84
 64.92 83.04 89.81 84.52 77.98 31.85
 64.74 83.14 89.53 84.54 77.99 31.86
 64.74 83.14 89.53 84.54 77.99 31.87
 64.52 83.30 89.03 84.49 78.00 31.88
 64.52 83.30 89.03 84.49 78.00 31.89
 64.26 83.47 88.35 84.33 78.03 31.89
 63.94 83.58 87.55 83.95 78.07 31.90
 63.94 83.58 87.55 83.95 78.07 31.92
 63.64 83.60 86.76 83.41 78.11 31.93
 63.37 83.62 85.87 82.80 78.15 31.94
 63.37 83.62 85.87 82.80 78.15 31.95
 63.23 83.62 85.43 81.87 78.19 31.96
 63.23 83.62 85.43 81.87 78.19 31.97
 63.12 83.64 85.24 80.91 78.25 31.98
 63.00 83.59 85.12 80.24 78.31 31.99
 63.00 83.59 85.12 80.24 78.31 32.00
 62.83 83.47 85.05 79.65 78.37 32.01
 62.83 83.47 85.05 79.65 78.37 32.02
 62.61 83.39 84.84 78.57 78.42 32.03
 62.61 83.39 84.84 78.57 78.42 32.04
 62.34 83.31 84.67 77.19 78.45 32.05
 62.08 83.19 84.56 76.03 78.45 32.06
 62.08 83.19 84.56 76.03 78.45 32.07
 62.08 83.19 84.56 76.03 78.45 32.08
 61.84 83.06 84.49 74.80 78.43 32.09
 61.84 83.06 84.49 74.80 78.43 32.10
 61.62 82.81 84.42 73.64 78.39 32.11
 61.62 82.81 84.42 73.64 78.39 32.12
 61.47 82.44 84.22 73.24 78.36 32.12
 61.30 81.95 83.67 73.06 78.32 32.13
 61.01 81.34 82.67 73.00 78.28 32.14
 61.01 81.34 82.67 73.00 78.28 32.15
 60.72 80.59 81.67 72.96 78.24 32.16
 60.46 79.94 81.08 72.90 78.19 32.17
 60.46 79.94 81.08 72.90 78.19 32.18
 60.25 79.36 80.68 72.84 78.13 32.19
 60.25 79.36 80.68 72.84 78.13 32.20
 60.08 78.87 80.38 72.72 78.06 32.21
 59.97 78.25 79.97 72.58 77.97 32.22
 59.97 78.25 79.97 72.58 77.97 32.23
 59.89 77.51 79.51 72.43 77.88 32.24
 59.89 77.51 79.51 72.43 77.88 32.25
 59.81 76.85 79.20 72.22 77.78 32.26
 59.81 76.85 79.20 72.22 77.78 32.27
 59.74 76.39 78.87 72.01 77.62 32.28
 59.70 76.09 78.47 71.81 77.44 32.29
 59.70 76.09 78.47 71.81 77.44 32.30
 59.67 75.84 78.13 71.51 77.27 32.31
 59.67 75.84 78.13 71.51 77.27 32.32
 59.66 75.55 77.85 71.14 77.10 32.33
 59.65 75.21 77.67 70.84 76.97 32.34
 59.65 75.21 77.67 70.84 76.97 32.35
 59.66 74.95 77.51 70.59 76.89 32.37
 59.67 74.77 77.39 70.44 76.84 32.38
 59.67 74.77 77.39 70.44 76.84 32.39
 59.71 74.66 77.34 69.95 76.82 32.40
 59.71 74.66 77.34 69.95 76.82 32.41
 59.77 74.59 77.34 69.20 76.82 32.42
 59.93 74.54 77.34 68.97 76.82 32.43
 59.93 74.54 77.34 68.97 76.82 32.44
 60.29 74.51 77.36 68.98 76.80 32.45
 60.29 74.51 77.36 68.98 76.80 32.46
 60.70 74.50 77.38 69.39 76.75 32.47
 60.70 74.50 77.38 69.39 76.75 32.48
 61.07 74.50 77.40 70.25 76.64 32.49
 61.07 74.50 77.40 70.25 76.64 32.50
 61.41 74.50 77.00 71.48 76.50 32.51
 61.66 74.51 76.95 72.38 76.36 32.52
 61.66 74.51 76.95 72.38 76.36 32.53
 61.92 74.50 76.99 73.00 76.20 32.54
 62.19 74.49 77.17 73.53 76.02 32.55
 62.19 74.49 77.17 73.53 76.02 32.56
 62.50 74.50 77.63 74.06 75.84 32.57
 62.50 74.50 77.63 74.06 75.84 32.58
 62.79 74.53 78.26 74.64 75.68 32.59
 63.03 74.60 78.96 75.25 75.59 32.60
 63.03 74.60 78.96 75.25 75.59 32.61
 63.29 74.75 79.65 75.85 75.54 32.62
 63.29 74.75 79.65 75.85 75.54 32.63
 63.52 74.99 80.35 76.48 75.47 32.64
 63.52 74.99 80.35 76.48 75.47 32.65
 63.71 75.32 80.91 77.06 75.41 32.66
 63.91 75.73 81.39 77.55 75.39 32.67
 63.91 75.73 81.39 77.55 75.39 32.68
 64.07 76.14 81.84 77.97 75.38 32.69
 64.07 76.14 81.84 77.97 75.38 32.70
 64.19 76.57 82.30 78.32 75.37 32.71
 64.19 76.57 82.30 78.32 75.37 32.72
 64.30 77.01 82.71 78.66 75.38 32.73
 64.40 77.45 83.01 78.99 75.39 32.74
 64.40 77.45 83.01 78.99 75.39 32.76
 64.49 77.88 83.23 79.28 75.42 32.77
 64.58 78.28 83.42 79.55 75.44 32.78
 64.58 78.28 83.42 79.55 75.44 32.79
 64.66 78.60 83.60 79.73 75.47 32.80
 64.66 78.60 83.60 79.73 75.47 32.81
 64.72 78.87 83.77 79.87 75.52 32.82
 64.78 79.09 83.93 79.99 75.56 32.83
 64.78 79.09 83.93 79.99 75.56 32.84
 64.83 79.28 84.07 80.09 75.58 32.85
 64.83 79.28 84.07 80.09 75.58 32.86
 64.87 79.46 84.22 80.24 75.60 32.87
 64.89 79.62 84.35 80.34 75.62 32.88
 64.89 79.62 84.35 80.34 75.62 32.89
 64.92 79.78 84.44 80.43 75.65 32.90
 64.92 79.78 84.44 80.43 75.65 32.91
 64.93 79.93 84.51 80.49 75.67 32.92
 64.93 79.93 84.51 80.49 75.67 32.93
 64.94 80.07 84.58 80.51 75.69 32.94
 64.94 80.07 84.58 80.51 75.69 32.95
 64.96 80.19 84.64 80.54 75.72 32.96
 64.97 80.29 84.70 80.55 75.73 32.97
 64.97 80.29 84.70 80.55 75.73 32.98
 64.99 80.38 84.74 80.59 75.74 32.99
 65.00 80.45 84.79 80.61 75.76 33.00
 65.00 80.45 84.79 80.61 75.76 33.01
 65.02 80.50 84.82 80.64 75.77 33.02
 65.02 80.50 84.82 80.64 75.77 33.03
 65.03 80.55 84.86 80.66 75.78 33.04
 65.05 80.57 84.89 80.67 75.79 33.05
 65.05 80.57 84.89 80.67 75.79 33.06
 65.48 81.27 85.61 81.31 76.46 33.07
 65.48 81.27 85.61 81.31 76.46 33.08
 65.76 81.84 86.28 81.94 76.77 33.09
 66.02 82.31 86.84 82.38 77.02 33.10
 66.02 82.31 86.84 82.38 77.02 33.11
 66.25 82.72 87.30 82.74 77.24 33.12
 66.25 82.72 87.30 82.74 77.24 33.14
 66.42 83.06 87.71 83.06 77.41 33.14
 66.42 83.06 87.71 83.06 77.41 33.16
 66.57 83.37 88.05 83.34 77.58 33.16
 66.57 83.37 88.05 83.34 77.58 33.17
 66.70 83.60 88.31 83.54 77.68 33.18
 66.70 83.60 88.31 83.54 77.68 33.19
 66.80 83.78 88.51 83.70 77.77 33.20
 66.93 83.97 88.70 83.86 77.87 33.21
 67.06 84.12 88.86 83.93 77.94 33.22
 67.06 84.12 88.86 83.93 77.94 33.23
 67.22 84.26 89.00 83.90 77.98 33.24
 67.22 84.26 89.00 83.90 77.98 33.25
 67.35 84.39 89.13 83.65 78.00 33.26
 67.35 84.39 89.13 83.65 78.00 33.27
 67.44 84.55 89.31 83.13 78.01 33.28
 67.52 84.80 89.49 82.47 78.04 33.29
 67.52 84.80 89.49 82.47 78.04 33.30
 67.54 85.12 89.70 81.68 78.09 33.31
 67.54 85.12 89.70 81.68 78.09 33.32
 67.52 85.45 89.85 80.47 78.17 33.33
 67.49 85.75 89.93 78.89 78.26 33.34
 67.49 85.75 89.93 78.89 78.26 33.35
 67.46 85.96 89.96 78.21 78.38 33.36
 67.46 85.96 89.96 78.21 78.38 33.37
 67.43 86.09 89.94 78.28 78.47 33.38
 67.43 86.09 89.94 78.28 78.47 33.39
 67.39 86.16 89.89 78.61 78.52 33.40
 67.34 86.21 89.76 79.01 78.55 33.41
 67.34 86.21 89.76 79.01 78.55 33.42
 67.28 86.23 89.54 79.20 78.55 33.43
 67.20 86.22 89.24 79.40 78.52 33.44
 67.20 86.22 89.24 79.40 78.52 33.45
 67.10 86.19 88.92 79.43 78.46 33.46
 67.10 86.19 88.92 79.43 78.46 33.47
 66.98 86.13 88.57 79.39 78.34 33.48
 66.98 86.13 88.57 79.39 78.34 33.49
 66.88 86.06 88.19 79.30 78.18 33.50
 66.79 85.97 87.75 79.12 77.95 33.51
 66.79 85.97 87.75 79.12 77.95 33.52
 66.67 85.87 87.19 79.01 77.64 33.53
 66.67 85.87 87.19 79.01 77.64 33.54
 66.55 85.77 86.55 78.80 77.21 33.55
 66.55 85.77 86.55 78.80 77.21 33.56
 66.49 85.68 86.28 78.40 76.85 33.57
 66.49 85.68 86.28 78.40 76.85 33.58
 66.47 85.60 86.06 78.01 76.53 33.59
 66.47 85.60 86.06 78.01 76.53 33.60
 66.56 85.50 85.79 77.63 76.22 33.61
 66.67 85.42 85.42 77.32 75.93 33.62
 66.67 85.42 85.42 77.32 75.93 33.63
 66.82 85.33 85.01 76.91 75.65 33.64
 67.00 85.22 84.57 76.48 75.37 33.65
 67.00 85.22 84.57 76.48 75.37 33.66
 67.22 85.13 84.08 76.05 75.02 33.67
 67.22 85.13 84.08 76.05 75.02 33.68
 67.46 85.03 83.62 75.65 74.70 33.69
 67.67 84.93 83.21 75.21 74.44 33.70
 67.67 84.93 83.21 75.21 74.44 33.71
 67.86 84.85 82.83 74.85 74.23 33.72
 67.86 84.85 82.83 74.85 74.23 33.73
 68.03 84.76 82.45 74.56 74.07 33.74
 68.20 84.67 82.13 74.41 73.96 33.75
 68.20 84.67 82.13 74.41 73.96 33.76
 68.38 84.60 81.85 74.30 73.87 33.77
 68.38 84.60 81.85 74.30 73.87 33.79
 68.57 84.53 81.67 74.23 73.80 33.80
 68.81 84.48 81.53 74.20 73.75 33.81
 68.81 84.48 81.53 74.20 73.75 33.82
 69.16 84.46 81.44 74.21 73.75 33.83
 69.16 84.46 81.44 74.21 73.75 33.84
 69.62 84.44 81.40 74.24 73.87 33.85
 69.62 84.44 81.40 74.24 73.87 33.86
 70.17 84.40 81.39 74.36 74.13 33.87
 70.78 84.33 81.44 74.56 74.56 33.88
 70.78 84.33 81.44 74.56 74.56 33.89
 71.22 84.21 81.61 74.79 75.01 33.90
 71.59 83.99 81.97 75.09 75.49 33.91
 71.59 83.99 81.97 75.09 75.49 33.92
 71.93 83.51 82.30 75.56 75.97 33.93
 71.93 83.51 82.30 75.56 75.97 33.94
 72.13 83.16 82.51 75.90 76.47 33.95
 72.38 82.91 82.65 76.10 76.97 33.96
 72.38 82.91 82.65 76.10 76.97 33.97
 72.64 82.76 83.65 76.21 77.33 33.98
 72.64 82.76 83.65 76.21 77.33 33.99
 72.86 82.69 84.97 76.26 77.48 34.00
 72.86 82.69 84.97 76.26 77.48 34.01
 73.07 82.70 85.74 76.40 77.55 34.02
 73.07 82.70 85.74 76.40 77.55 34.03
 73.19 82.74 86.19 76.67 77.61 34.04
 73.23 82.81 86.59 77.09 77.66 34.05
 73.23 82.81 86.59 77.09 77.66 34.06
 73.20 82.98 87.04 77.44 77.72 34.07
 73.20 82.98 87.04 77.44 77.72 34.08
 73.15 83.14 87.50 78.15 77.75 34.09
 73.07 83.40 88.01 78.59 77.80 34.10
 73.07 83.40 88.01 78.59 77.80 34.11
 72.97 83.69 88.48 78.91 77.87 34.12
 72.97 83.69 88.48 78.91 77.87 34.13
 72.85 83.99 88.88 79.22 77.96 34.14
 72.73 84.24 89.16 80.03 78.03 34.15
 72.73 84.24 89.16 80.03 78.03 34.16
 72.62 84.50 89.51 80.51 78.09 34.17
 72.62 84.50 89.51 80.51 78.09 34.18
 72.52 84.71 89.81 81.15 78.15 34.19
 72.42 84.97 90.16 81.47 78.23 34.20
 72.42 84.97 90.16 81.47 78.23 34.21
 72.31 85.18 90.41 81.95 78.28 34.22
 72.31 85.18 90.41 81.95 78.28 34.23
 72.23 85.35 90.61 82.45 78.30 34.24
 72.23 85.35 90.61 82.45 78.30 34.25
 72.14 85.51 90.79 82.84 78.32 34.26
 72.14 85.51 90.79 82.84 78.32 34.27
 72.04 85.62 90.93 83.10 78.33 34.28
 71.95 85.72 91.07 83.31 78.36 34.29
 71.95 85.72 91.07 83.31 78.36 34.30
 71.84 85.81 91.19 83.50 78.38 34.31
 71.76 85.88 91.27 83.69 78.39 34.32
 71.76 85.88 91.27 83.69 78.39 34.33
 71.66 85.93 91.34 83.86 78.42 34.34
 71.66 85.93 91.34 83.86 78.42 34.35
 71.58 85.97 91.42 84.01 78.44 34.36
 71.52 86.01 91.49 84.15 78.45 34.37
 71.52 86.01 91.49 84.15 78.45 34.38
 71.46 86.05 91.56 84.26 78.48 34.39
 71.46 86.05 91.56 84.26 78.48 34.40
 71.41 86.08 91.62 84.34 78.50 34.41
 71.36 86.09 91.66 84.41 78.48 34.42
 71.36 86.09 91.66 84.41 78.48 34.43
 71.32 86.11 91.69 84.46 78.46 34.44
 71.32 86.11 91.69 84.46 78.46 34.45
 71.29 86.13 91.73 84.49 78.42 34.46
 71.29 86.13 91.73 84.49 78.42 34.47
 71.25 86.14 91.76 84.54 78.34 34.48
 71.25 86.14 91.76 84.54 78.34 34.49
 71.20 86.14 91.78 84.60 78.26 34.50
 71.17 86.15 91.80 84.67 78.18 34.51
 71.13 86.16 91.82 84.74 78.08 34.52
 71.13 86.16 91.82 84.74 78.08 34.53
 71.09 86.16 91.84 84.80 78.00 34.54
 71.09 86.16 91.84 84.80 78.00 34.56
 71.05 86.17 91.90 84.87 77.92 34.57
 71.05 86.17 91.90 84.87 77.92 34.58
 70.99 86.17 91.95 84.95 77.85 34.59
 70.94 86.17 91.99 85.02 77.80 34.60
 70.94 86.17 91.99 85.02 77.80 34.61
 70.89 86.19 92.02 85.09 77.76 34.62
 70.89 86.19 92.02 85.09 77.76 34.63
 70.85 86.20 92.07 85.15 77.71 34.64
 70.80 86.21 92.10 85.19 77.63 34.65
 70.80 86.21 92.10 85.19 77.63 34.66
 70.74 86.22 92.17 85.21 77.45 34.67
 70.74 86.22 92.17 85.21 77.45 34.68
 70.70 86.23 92.26 85.23 77.13 34.69
 70.65 86.25 92.34 85.26 76.67 34.70
 70.65 86.25 92.34 85.26 76.67 34.71
 70.59 86.28 92.44 85.35 76.14 34.72
 70.59 86.28 92.44 85.35 76.14 34.73
 70.50 86.34 92.64 85.55 75.56 34.74
 70.37 86.43 92.93 85.80 74.94 34.75
 70.37 86.43 92.93 85.80 74.94 34.76
 70.25 86.59 93.40 86.14 73.93 34.78
 70.15 86.78 93.87 86.54 72.79 34.79
 70.15 86.78 93.87 86.54 72.79 34.80
 70.08 86.97 94.30 86.89 71.43 34.81
 70.08 86.97 94.30 86.89 71.43 34.82
 70.02 87.13 94.67 87.13 69.83 34.83
 69.98 87.20 94.90 87.28 68.58 34.84
 69.98 87.20 94.90 87.28 68.58 34.85
 69.95 87.25 95.02 87.42 67.76 34.86
 69.95 87.25 95.02 87.42 67.76 34.87
 69.92 87.30 95.14 87.52 67.10 34.88
 69.92 87.30 95.14 87.52 67.10 34.89
 69.90 87.32 95.24 87.62 66.67 34.90
 69.87 87.37 95.33 87.74 66.25 34.91
 69.87 87.37 95.33 87.74 66.25 34.92
 69.83 87.43 95.42 87.80 65.93 34.93
 69.83 87.43 95.42 87.80 65.93 34.94
 69.79 87.44 95.49 87.82 65.80 34.95
 69.79 87.44 95.49 87.82 65.80 34.96
 69.77 87.43 95.56 87.86 65.73 34.97
 69.75 87.39 95.59 88.03 65.67 34.98
 69.75 87.39 95.59 88.03 65.67 34.99
 69.72 87.30 95.59 88.12 65.61 35.00
 69.70 87.23 95.61 88.25 65.50 35.01
