 72.83 94.63 100.21 94.12 86.25 0.01
 72.83 94.63 100.21 94.12 86.25 0.02
 72.83 94.63 100.21 94.12 86.25 0.03
 72.83 94.63 100.21 94.12 86.25 0.04
 72.83 94.63 100.20 94.12 86.25 0.05
 72.83 94.63 100.20 94.12 86.25 0.06
 72.83 94.63 100.20 94.12 86.25 0.07
 72.83 94.63 100.20 94.12 86.25 0.08
 72.83 94.63 100.20 94.12 86.25 0.09
 72.83 94.63 100.20 94.12 86.25 0.10
 72.83 94.63 100.20 94.12 86.25 0.11
 72.83 94.63 100.20 94.12 86.25 0.12
 72.83 94.63 100.20 94.12 86.25 0.13
 72.83 94.63 100.20 94.12 86.25 0.14
 72.85 94.63 100.20 94.12 86.26 0.15
 72.85 94.63 100.20 94.12 86.26 0.16
 72.85 94.63 100.20 94.12 86.26 0.17
 72.86 94.63 100.19 94.12 86.26 0.18
 72.86 94.63 100.19 94.12 86.26 0.19
 72.86 94.63 100.19 94.12 86.26 0.20
 72.87 94.62 100.18 94.12 86.26 0.21
 72.87 94.62 100.18 94.12 86.26 0.22
 72.87 94.62 100.18 94.12 86.26 0.23
 72.87 94.62 100.18 94.12 86.26 0.24
 72.87 94.62 100.18 94.12 86.26 0.25
 72.87 94.62 100.18 94.12 86.26 0.26
 72.87 94.62 100.18 94.12 86.26 0.27
 72.88 94.62 100.18 94.12 86.26 0.28
 72.88 94.62 100.18 94.12 86.26 0.29
 72.88 94.62 100.18 94.12 86.26 0.30
 72.88 94.62 100.18 94.12 86.26 0.31
 72.88 94.61 100.18 94.12 86.26 0.32
 72.88 94.61 100.18 94.12 86.26 0.33
 72.88 94.61 100.18 94.11 86.26 0.34
 72.88 94.61 100.18 94.11 86.26 0.35
 72.88 94.61 100.18 94.11 86.26 0.36
 72.88 94.61 100.18 94.11 86.26 0.37
 72.88 94.61 100.18 94.11 86.26 0.38
 72.90 94.60 100.18 94.11 86.26 0.39
 72.90 94.60 100.18 94.11 86.26 0.40
 72.90 94.60 100.18 94.11 86.26 0.41
 72.90 94.60 100.18 94.11 86.26 0.42
 72.90 94.60 100.18 94.11 86.26 0.43
 72.90 94.60 100.18 94.11 86.26 0.44
 72.90 94.60 100.18 94.11 86.26 0.45
 72.91 94.60 100.18 94.11 86.26 0.46
 72.92 94.60 100.17 94.11 86.27 0.47
 72.92 94.60 100.17 94.11 86.27 0.48
 72.92 94.60 100.17 94.11 86.27 0.49
 72.92 94.60 100.17 94.11 86.27 0.50
 72.92 94.60 100.17 94.11 86.27 0.51
 72.93 94.59 100.17 94.11 86.27 0.52
 72.93 94.59 100.17 94.11 86.27 0.53
 72.93 94.59 100.17 94.11 86.27 0.54
 72.93 94.59 100.17 94.11 86.27 0.55
 72.93 94.59 100.17 94.11 86.27 0.56
 72.93 94.59 100.16 94.11 86.27 0.57
 72.93 94.59 100.16 94.11 86.27 0.58
 72.93 94.59 100.16 94.11 86.27 0.58
 72.93 94.59 100.16 94.11 86.27 0.59
 72.93 94.59 100.16 94.11 86.27 0.60
 72.93 94.59 100.16 94.11 86.27 0.61
 72.93 94.59 100.16 94.11 86.27 0.62
 72.93 94.59 100.15 94.11 86.28 0.63
 72.93 94.59 100.15 94.11 86.28 0.64
 72.93 94.59 100.15 94.11 86.28 0.65
 72.93 94.59 100.15 94.11 86.28 0.66
 72.93 94.59 100.15 94.11 86.28 0.67
 72.93 94.59 100.15 94.11 86.28 0.68
 72.93 94.59 100.15 94.11 86.28 0.69
 72.93 94.59 100.15 94.11 86.28 0.70
 72.93 94.59 100.15 94.11 86.28 0.71
 72.93 94.59 100.15 94.11 86.28 0.72
 72.93 94.59 100.15 94.11 86.28 0.73
 72.93 94.59 100.15 94.11 86.28 0.74
 72.93 94.59 100.15 94.11 86.28 0.75
 72.93 94.59 100.15 94.11 86.28 0.76
 72.93 94.59 100.15 94.11 86.28 0.77
 72.93 94.59 100.15 94.11 86.28 0.78
 72.93 94.59 100.15 94.11 86.28 0.79
 72.93 94.59 100.15 94.11 86.28 0.80
 72.93 94.59 100.14 94.11 86.28 0.81
 72.93 94.59 100.14 94.11 86.28 0.82
 72.93 94.59 100.14 94.11 86.28 0.83
 72.93 94.59 100.14 94.11 86.28 0.84
 72.93 94.59 100.14 94.11 86.28 0.85
 72.95 94.59 100.14 94.11 86.28 0.86
 72.95 94.59 100.14 94.11 86.28 0.87
 72.95 94.59 100.14 94.11 86.28 0.88
 72.95 94.59 100.14 94.11 86.28 0.89
 72.95 94.59 100.14 94.11 86.28 0.90
 72.97 94.58 100.14 94.10 86.29 0.91
 72.97 94.58 100.14 94.10 86.29 0.92
 72.98 94.58 100.14 94.10 86.29 0.93
 72.98 94.58 100.14 94.10 86.29 0.94
 72.98 94.58 100.14 94.10 86.29 0.95
 72.98 94.58 100.14 94.10 86.29 0.96
 72.98 94.58 100.14 94.10 86.29 0.97
 73.00 94.58 100.13 94.10 86.29 0.98
 73.00 94.58 100.13 94.10 86.29 0.99
 73.00 94.58 100.13 94.10 86.29 1.00
 73.00 94.58 100.13 94.10 86.29 1.01
 73.02 94.58 100.13 94.10 86.30 1.02
 73.02 94.58 100.13 94.10 86.30 1.03
 73.03 94.58 100.13 94.10 86.30 1.04
 73.03 94.58 100.13 94.10 86.30 1.05
 73.03 94.58 100.13 94.10 86.30 1.06
 73.03 94.58 100.13 94.10 86.30 1.07
 73.03 94.58 100.13 94.10 86.30 1.08
 73.03 94.58 100.13 94.10 86.30 1.09
 73.06 94.58 100.13 94.10 86.30 1.10
 73.06 94.58 100.13 94.10 86.30 1.11
 73.06 94.58 100.13 94.10 86.30 1.12
 73.06 94.58 100.13 94.10 86.30 1.13
 73.08 94.57 100.13 94.10 86.31 1.14
 73.08 94.57 100.13 94.10 86.31 1.15
 73.08 94.57 100.13 94.10 86.31 1.16
 73.08 94.57 100.13 94.10 86.31 1.17
 73.08 94.57 100.13 94.10 86.31 1.18
 73.08 94.57 100.13 94.10 86.31 1.19
 73.08 94.57 100.13 94.10 86.31 1.20
 73.08 94.57 100.13 94.10 86.31 1.21
 73.08 94.57 100.13 94.10 86.31 1.22
 73.09 94.57 100.13 94.10 86.32 1.23
 73.09 94.57 100.13 94.10 86.32 1.24
 73.09 94.57 100.13 94.10 86.32 1.25
 73.09 94.57 100.13 94.10 86.32 1.26
 73.09 94.57 100.13 94.10 86.32 1.27
 73.09 94.57 100.13 94.10 86.32 1.28
 73.10 94.57 100.13 94.10 86.32 1.29
 73.10 94.57 100.13 94.10 86.32 1.30
 73.10 94.57 100.13 94.10 86.32 1.31
 73.10 94.57 100.13 94.10 86.32 1.32
 73.11 94.57 100.13 94.11 86.32 1.33
 73.11 94.57 100.13 94.11 86.32 1.34
 73.11 94.57 100.13 94.11 86.32 1.35
 73.11 94.57 100.13 94.11 86.32 1.36
 73.11 94.57 100.13 94.11 86.32 1.37
 73.11 94.57 100.13 94.11 86.32 1.38
 73.11 94.57 100.13 94.11 86.32 1.39
 73.11 94.57 100.13 94.11 86.33 1.40
 73.11 94.57 100.13 94.11 86.33 1.41
 73.12 94.57 100.13 94.11 86.33 1.42
 73.12 94.57 100.13 94.11 86.33 1.43
 73.12 94.57 100.13 94.11 86.33 1.44
 73.12 94.57 100.13 94.11 86.33 1.45
 73.12 94.57 100.13 94.11 86.33 1.46
 73.12 94.57 100.13 94.11 86.33 1.47
 73.12 94.57 100.13 94.11 86.33 1.48
 73.11 94.57 100.13 94.11 86.33 1.49
 73.11 94.57 100.13 94.11 86.33 1.50
 73.11 94.57 100.13 94.11 86.33 1.51
 73.11 94.57 100.13 94.11 86.33 1.52
 73.11 94.57 100.13 94.11 86.33 1.53
 73.11 94.57 100.13 94.11 86.33 1.54
 73.11 94.57 100.13 94.11 86.33 1.55
 73.11 94.56 100.13 94.11 86.34 1.56
 73.11 94.56 100.13 94.11 86.34 1.57
 73.11 94.56 100.13 94.11 86.34 1.58
 73.11 94.56 100.13 94.11 86.34 1.59
 73.11 94.56 100.13 94.11 86.34 1.60
 73.11 94.56 100.13 94.11 86.34 1.61
 73.11 94.56 100.12 94.11 86.34 1.62
 73.11 94.56 100.12 94.11 86.34 1.63
 73.11 94.56 100.12 94.11 86.34 1.64
 73.11 94.56 100.12 94.11 86.34 1.65
 73.10 94.56 100.12 94.11 86.34 1.66
 73.10 94.56 100.12 94.11 86.34 1.67
 73.10 94.56 100.12 94.11 86.34 1.68
 73.09 94.56 100.12 94.12 86.35 1.69
 73.09 94.56 100.12 94.12 86.35 1.70
 73.09 94.56 100.12 94.12 86.35 1.71
 73.08 94.56 100.12 94.12 86.35 1.72
 73.08 94.56 100.12 94.12 86.35 1.73
 73.08 94.56 100.12 94.12 86.35 1.74
 73.07 94.56 100.12 94.12 86.35 1.75
 73.07 94.56 100.12 94.12 86.35 1.76
 73.07 94.56 100.12 94.12 86.35 1.77
 73.07 94.56 100.12 94.12 86.35 1.78
 73.07 94.56 100.11 94.12 86.35 1.79
 73.07 94.56 100.11 94.12 86.35 1.80
 73.07 94.56 100.11 94.12 86.35 1.81
 73.06 94.56 100.11 94.12 86.36 1.82
 73.06 94.56 100.11 94.12 86.36 1.84
 73.06 94.56 100.11 94.12 86.36 1.85
 73.05 94.56 100.10 94.12 86.36 1.86
 73.05 94.56 100.10 94.12 86.36 1.87
 73.05 94.56 100.10 94.12 86.36 1.88
 73.05 94.55 100.09 94.12 86.36 1.89
 73.05 94.55 100.09 94.12 86.36 1.90
 73.05 94.55 100.09 94.12 86.36 1.91
 73.05 94.55 100.09 94.12 86.36 1.92
 73.04 94.55 100.09 94.12 86.37 1.93
 73.04 94.55 100.09 94.12 86.37 1.94
 73.04 94.55 100.09 94.12 86.37 1.95
 73.04 94.54 100.08 94.12 86.38 1.96
 73.04 94.54 100.08 94.12 86.38 1.97
 73.04 94.54 100.08 94.12 86.38 1.98
 73.04 94.54 100.08 94.12 86.38 1.99
 73.04 94.52 100.08 94.12 86.38 2.00
 73.04 94.52 100.08 94.12 86.38 2.01
 73.04 94.52 100.08 94.12 86.38 2.02
 73.04 94.52 100.08 94.12 86.38 2.03
 73.04 94.51 100.07 94.11 86.38 2.04
 73.04 94.51 100.07 94.11 86.38 2.05
 73.04 94.51 100.07 94.11 86.38 2.06
 73.04 94.50 100.06 94.11 86.38 2.07
 73.04 94.50 100.06 94.11 86.38 2.08
 73.04 94.49 100.05 94.11 86.39 2.09
 73.04 94.49 100.05 94.11 86.39 2.10
 73.04 94.49 100.05 94.11 86.39 2.11
 73.04 94.49 100.05 94.11 86.39 2.12
 73.04 94.48 100.05 94.11 86.39 2.13
 73.04 94.48 100.05 94.11 86.39 2.14
 73.04 94.48 100.05 94.11 86.39 2.15
 73.04 94.47 100.04 94.11 86.39 2.16
 73.04 94.47 100.04 94.11 86.39 2.17
 73.04 94.47 100.04 94.11 86.39 2.18
 73.04 94.47 100.04 94.11 86.40 2.19
 73.04 94.47 100.04 94.11 86.40 2.20
 73.04 94.47 100.04 94.11 86.40 2.21
 73.04 94.46 100.03 94.11 86.40 2.22
 73.04 94.46 100.03 94.11 86.40 2.23
 73.04 94.46 100.03 94.11 86.40 2.24
 73.04 94.46 100.03 94.12 86.40 2.25
 73.04 94.46 100.03 94.12 86.40 2.26
 73.04 94.46 100.03 94.12 86.40 2.27
 73.04 94.45 100.03 94.12 86.41 2.28
 73.04 94.45 100.03 94.12 86.41 2.30
 73.04 94.45 100.03 94.12 86.41 2.31
 73.04 94.45 100.02 94.12 86.41 2.32
 73.04 94.45 100.02 94.12 86.41 2.33
 73.04 94.45 100.02 94.12 86.41 2.34
 73.04 94.45 100.02 94.12 86.41 2.35
 73.03 94.44 100.02 94.12 86.42 2.36
 73.03 94.44 100.02 94.12 86.42 2.37
 73.03 94.44 100.02 94.12 86.42 2.38
 73.03 94.44 100.02 94.11 86.42 2.39
 73.03 94.44 100.02 94.11 86.42 2.40
 73.03 94.44 100.02 94.11 86.42 2.41
 73.03 94.44 100.02 94.11 86.42 2.42
 73.03 94.44 100.02 94.11 86.42 2.43
 73.03 94.44 100.02 94.11 86.42 2.44
 73.03 94.44 100.02 94.11 86.42 2.45
 73.03 94.44 100.02 94.11 86.42 2.46
 73.03 94.44 100.02 94.11 86.42 2.47
 73.03 94.44 100.02 94.11 86.42 2.48
 73.01 94.43 100.01 94.10 86.42 2.49
 73.01 94.43 100.01 94.10 86.42 2.50
 73.01 94.43 100.01 94.10 86.42 2.51
 73.00 94.42 100.01 94.10 86.42 2.52
 73.00 94.42 100.01 94.10 86.42 2.53
 73.00 94.42 100.01 94.10 86.42 2.54
 73.00 94.42 100.01 94.10 86.42 2.55
 72.96 94.42 100.00 94.10 86.42 2.56
 72.96 94.42 100.00 94.10 86.42 2.57
 72.96 94.42 100.00 94.10 86.42 2.58
 72.95 94.41 100.00 94.10 86.42 2.60
 72.95 94.41 100.00 94.10 86.42 2.60
 72.95 94.41 100.00 94.10 86.42 2.61
 72.94 94.41 100.00 94.10 86.42 2.62
 72.94 94.41 100.00 94.10 86.42 2.63
 72.94 94.41 100.00 94.10 86.42 2.64
 72.94 94.41 100.00 94.10 86.42 2.65
 72.94 94.41 100.00 94.10 86.43 2.66
 72.94 94.41 100.00 94.10 86.43 2.67
 72.94 94.41 100.00 94.10 86.43 2.68
 72.93 94.40 100.00 94.10 86.43 2.69
 72.93 94.40 100.00 94.10 86.43 2.70
 72.93 94.40 100.00 94.10 86.43 2.71
 72.92 94.40 99.99 94.10 86.43 2.72
 72.92 94.40 99.99 94.10 86.43 2.73
 72.92 94.40 99.99 94.10 86.43 2.74
 72.91 94.40 99.99 94.10 86.43 2.75
 72.91 94.40 99.99 94.10 86.43 2.75
 72.91 94.40 99.99 94.10 86.43 2.76
 72.91 94.40 99.99 94.10 86.43 2.77
 72.89 94.40 99.99 94.10 86.43 2.78
 72.89 94.40 99.99 94.10 86.43 2.79
 72.89 94.40 99.99 94.10 86.43 2.80
 72.88 94.40 99.98 94.10 86.44 2.81
 72.88 94.40 99.98 94.10 86.44 2.83
 72.88 94.40 99.98 94.10 86.44 2.84
 72.88 94.40 99.98 94.10 86.44 2.85
 72.87 94.40 99.98 94.11 86.44 2.86
 72.87 94.40 99.98 94.11 86.44 2.87
 72.87 94.40 99.98 94.11 86.44 2.88
 72.86 94.40 99.98 94.11 86.44 2.89
 72.86 94.40 99.98 94.11 86.44 2.90
 72.86 94.40 99.98 94.11 86.44 2.91
 72.85 94.39 99.98 94.11 86.45 2.92
 72.85 94.39 99.98 94.11 86.45 2.93
 72.85 94.39 99.98 94.11 86.45 2.94
 72.85 94.39 99.98 94.11 86.45 2.95
 72.85 94.39 99.98 94.11 86.45 2.96
 72.85 94.39 99.98 94.11 86.45 2.97
 72.85 94.39 99.98 94.11 86.45 2.98
 72.86 94.39 99.98 94.11 86.45 2.99
 72.86 94.39 99.98 94.11 86.45 3.00
 72.86 94.39 99.98 94.11 86.45 3.01
 72.90 94.39 99.98 94.11 86.46 3.02
 72.90 94.39 99.98 94.11 86.46 3.03
 72.90 94.39 99.98 94.11 86.46 3.04
 72.97 94.39 99.98 94.11 86.46 3.05
 72.97 94.39 99.98 94.11 86.46 3.06
 72.97 94.39 99.98 94.11 86.46 3.07
 72.97 94.39 99.98 94.11 86.46 3.08
 73.06 94.39 99.97 94.11 86.46 3.09
 73.06 94.39 99.97 94.11 86.46 3.10
 73.06 94.39 99.97 94.11 86.46 3.11
 73.14 94.39 99.95 94.10 86.46 3.12
 73.14 94.39 99.95 94.10 86.46 3.13
 73.14 94.39 99.95 94.10 86.46 3.14
 73.22 94.39 99.95 94.10 86.46 3.15
 73.22 94.39 99.95 94.10 86.46 3.16
 73.22 94.39 99.95 94.10 86.46 3.17
 73.30 94.39 99.94 94.10 86.47 3.18
 73.30 94.39 99.94 94.10 86.47 3.19
 73.30 94.39 99.94 94.10 86.47 3.20
 73.38 94.38 99.94 94.10 86.47 3.21
 73.38 94.38 99.94 94.10 86.47 3.22
 73.38 94.38 99.94 94.10 86.47 3.23
 73.45 94.38 99.94 94.10 86.47 3.24
 73.45 94.38 99.94 94.10 86.47 3.25
 73.45 94.38 99.94 94.10 86.47 3.26
 73.45 94.38 99.94 94.10 86.47 3.27
 73.51 94.38 99.94 94.10 86.47 3.28
 73.51 94.38 99.94 94.10 86.47 3.29
 73.51 94.38 99.94 94.10 86.47 3.30
 73.51 94.38 99.94 94.10 86.47 3.31
 73.57 94.38 99.93 94.10 86.47 3.32
 73.57 94.38 99.93 94.10 86.47 3.33
 73.57 94.38 99.93 94.10 86.47 3.34
 73.67 94.38 99.93 94.10 86.48 3.35
 73.67 94.38 99.93 94.10 86.48 3.36
 73.67 94.38 99.93 94.10 86.48 3.37
 73.75 94.38 99.93 94.10 86.48 3.38
 73.75 94.38 99.93 94.10 86.48 3.39
 73.89 94.38 99.93 94.10 86.48 3.40
 73.89 94.38 99.93 94.10 86.48 3.41
 73.89 94.38 99.93 94.10 86.48 3.42
 73.89 94.38 99.93 94.10 86.48 3.43
 74.01 94.38 99.93 94.10 86.49 3.45
 74.01 94.38 99.93 94.10 86.49 3.46
 74.01 94.38 99.93 94.10 86.49 3.47
 74.12 94.38 99.93 94.10 86.49 3.48
 74.12 94.38 99.93 94.10 86.49 3.49
 74.12 94.38 99.93 94.10 86.49 3.50
 74.20 94.38 99.93 94.10 86.49 3.51
 74.20 94.38 99.93 94.10 86.49 3.52
 74.20 94.38 99.93 94.10 86.49 3.53
 74.30 94.39 99.93 94.10 86.49 3.54
 74.30 94.39 99.93 94.10 86.49 3.55
 74.30 94.39 99.93 94.10 86.49 3.56
 74.30 94.39 99.93 94.10 86.49 3.57
 74.39 94.39 99.93 94.10 86.49 3.58
 74.39 94.39 99.93 94.10 86.49 3.59
 74.39 94.39 99.93 94.10 86.49 3.60
 74.49 94.39 99.93 94.10 86.49 3.61
 74.49 94.39 99.93 94.10 86.49 3.62
 74.49 94.39 99.93 94.10 86.49 3.63
 74.57 94.39 99.93 94.10 86.49 3.64
 74.57 94.39 99.93 94.10 86.49 3.65
 74.57 94.39 99.93 94.10 86.49 3.66
 74.65 94.39 99.93 94.10 86.49 3.67
 74.65 94.39 99.93 94.10 86.49 3.68
 74.65 94.39 99.93 94.10 86.49 3.69
 74.73 94.39 99.93 94.10 86.49 3.70
 74.73 94.39 99.93 94.10 86.49 3.71
 74.73 94.39 99.93 94.10 86.49 3.72
 74.81 94.39 99.93 94.10 86.49 3.73
 74.81 94.39 99.93 94.10 86.49 3.74
 74.81 94.39 99.93 94.10 86.49 3.75
 74.90 94.39 99.94 94.10 86.49 3.76
 74.90 94.39 99.94 94.10 86.49 3.77
 74.90 94.39 99.94 94.10 86.49 3.78
 74.90 94.39 99.94 94.10 86.49 3.79
 74.90 94.40 99.94 94.10 86.48 3.80
 74.90 94.40 99.94 94.10 86.48 3.81
 74.90 94.40 99.94 94.10 86.48 3.82
 74.56 94.41 99.95 94.09 86.46 3.83
 74.56 94.41 99.95 94.09 86.46 3.84
 73.74 94.42 99.97 94.07 86.39 3.85
 73.74 94.42 99.97 94.07 86.39 3.86
 73.74 94.42 99.97 94.07 86.39 3.87
 72.49 94.44 99.98 94.05 86.29 3.88
 72.49 94.44 99.98 94.05 86.29 3.89
 71.01 94.46 99.98 94.02 86.17 3.90
 71.01 94.46 99.98 94.02 86.17 3.91
 69.29 94.48 99.99 93.99 86.06 3.92
 69.29 94.48 99.99 93.99 86.06 3.93
 67.45 94.49 100.01 93.97 85.97 3.94
 65.43 94.50 100.04 93.96 85.89 3.95
 65.43 94.50 100.04 93.96 85.89 3.97
 63.53 94.51 100.05 93.95 85.87 3.98
 63.53 94.51 100.05 93.95 85.87 3.99
 61.59 94.51 100.06 93.94 85.86 4.00
 61.59 94.51 100.06 93.94 85.86 4.01
 60.72 94.51 100.06 93.94 85.84 4.02
 60.72 94.51 100.06 93.94 85.84 4.03
 59.99 94.51 100.07 93.93 85.84 4.04
 59.99 94.51 100.07 93.93 85.84 4.05
 59.48 94.51 100.07 93.93 85.83 4.06
 58.68 94.50 100.07 93.93 85.81 4.07
 58.68 94.50 100.07 93.93 85.81 4.08
 57.52 94.47 100.07 93.93 85.80 4.09
 56.98 94.45 100.07 93.94 85.79 4.10
 56.36 94.40 100.07 93.93 85.77 4.11
 56.36 94.40 100.07 93.93 85.77 4.12
 55.94 94.35 100.07 93.93 85.77 4.13
 55.65 94.30 100.07 93.93 85.76 4.14
 55.39 94.24 100.06 93.93 85.76 4.15
 55.01 94.17 100.06 93.93 85.75 4.16
 55.01 94.17 100.06 93.93 85.75 4.17
 54.88 94.10 100.05 93.92 85.75 4.18
 54.78 94.03 100.04 93.92 85.75 4.19
 54.78 94.03 100.04 93.92 85.75 4.20
 54.69 93.97 100.03 93.91 85.73 4.21
 54.55 93.93 100.03 93.90 85.72 4.22
 54.55 93.93 100.03 93.90 85.72 4.23
 54.43 93.90 100.01 93.89 85.70 4.24
 54.43 93.90 100.01 93.89 85.70 4.25
 54.37 93.88 100.00 93.88 85.68 4.26
 54.33 93.87 99.99 93.87 85.66 4.27
 54.31 93.87 99.98 93.86 85.64 4.28
 54.31 93.87 99.98 93.86 85.64 4.29
 54.24 93.86 99.98 93.85 85.62 4.31
 54.14 93.86 99.97 93.85 85.60 4.32
 54.14 93.86 99.97 93.85 85.60 4.33
 54.05 93.86 99.96 93.83 85.58 4.34
 54.05 93.86 99.96 93.83 85.58 4.35
 53.99 93.85 99.96 93.82 85.56 4.36
 53.99 93.85 99.96 93.82 85.56 4.37
 53.94 93.85 99.95 93.80 85.54 4.38
 53.94 93.85 99.95 93.80 85.54 4.39
 53.91 93.83 99.93 93.79 85.52 4.40
 53.91 93.83 99.93 93.79 85.52 4.41
 53.87 93.82 99.92 93.77 85.51 4.42
 53.87 93.82 99.92 93.77 85.51 4.43
 53.87 93.82 99.92 93.77 85.51 4.44
 53.83 93.80 99.91 93.75 85.50 4.45
 53.83 93.80 99.91 93.75 85.50 4.46
 53.80 93.77 99.89 93.73 85.49 4.47
 53.80 93.77 99.89 93.73 85.49 4.48
 53.80 93.77 99.89 93.73 85.49 4.49
 53.79 93.74 99.87 93.70 85.48 4.50
 53.79 93.74 99.87 93.70 85.48 4.51
 53.78 93.72 99.85 93.68 85.46 4.52
 53.78 93.72 99.85 93.68 85.46 4.53
 53.78 93.72 99.85 93.68 85.46 4.54
 53.75 93.71 99.83 93.65 85.45 4.56
 53.75 93.71 99.83 93.65 85.45 4.57
 53.75 93.71 99.83 93.65 85.45 4.58
 53.66 93.71 99.81 93.62 85.45 4.59
 53.66 93.71 99.81 93.62 85.45 4.60
 53.66 93.71 99.81 93.62 85.45 4.61
 53.62 93.71 99.77 93.58 85.44 4.62
 53.62 93.71 99.77 93.58 85.44 4.63
 53.62 93.71 99.77 93.58 85.44 4.64
 53.60 93.75 99.74 93.53 85.43 4.65
 53.60 93.75 99.74 93.53 85.43 4.66
 53.60 93.75 99.74 93.53 85.43 4.67
 53.55 93.78 99.72 93.49 85.42 4.68
 53.55 93.78 99.72 93.49 85.42 4.69
 53.55 93.78 99.72 93.49 85.42 4.70
 53.50 93.84 99.70 93.46 85.42 4.71
 53.50 93.84 99.70 93.46 85.42 4.72
 53.50 93.84 99.70 93.46 85.42 4.73
 53.40 93.85 99.64 93.44 85.42 4.74
 53.40 93.85 99.64 93.44 85.42 4.75
 55.93 93.86 99.61 93.43 85.41 4.76
 55.93 93.86 99.61 93.43 85.41 4.77
 57.47 93.87 99.59 93.42 85.41 4.78
 59.80 93.87 99.57 93.42 85.41 4.80
 61.68 93.87 99.55 93.42 85.42 4.81
 61.68 93.87 99.55 93.42 85.42 4.81
 63.46 93.87 99.54 93.42 85.42 4.82
 63.46 93.87 99.54 93.42 85.42 4.83
 64.77 93.87 99.54 93.43 85.42 4.84
 65.96 93.87 99.53 93.43 85.42 4.85
 66.98 93.88 99.53 93.44 85.43 4.86
 66.98 93.88 99.53 93.44 85.43 4.87
 67.86 93.88 99.54 93.44 85.44 4.88
 67.86 93.88 99.54 93.44 85.44 4.89
 68.63 93.88 99.54 93.45 85.45 4.90
 68.63 93.88 99.54 93.45 85.45 4.92
 69.26 93.88 99.54 93.46 85.46 4.93
 69.26 93.88 99.54 93.46 85.46 4.94
 69.73 93.88 99.54 93.46 85.47 4.95
 70.38 93.88 99.54 93.47 85.48 4.96
 70.38 93.88 99.54 93.47 85.48 4.97
 70.79 93.88 99.55 93.48 85.49 4.98
 71.07 93.87 99.55 93.48 85.50 4.99
 71.07 93.87 99.55 93.48 85.50 5.00
 71.44 93.85 99.55 93.48 85.51 5.01
 71.73 93.84 99.55 93.49 85.52 5.02
 71.73 93.84 99.55 93.49 85.52 5.03
 71.95 93.83 99.55 93.49 85.53 5.04
 72.12 93.80 99.55 93.50 85.54 5.05
 72.24 93.75 99.55 93.51 85.55 5.06
 72.24 93.75 99.55 93.51 85.55 5.07
 72.33 93.70 99.56 93.51 85.56 5.08
 72.33 93.70 99.56 93.51 85.56 5.09
 72.45 93.64 99.57 93.52 85.57 5.10
 72.45 93.64 99.57 93.52 85.57 5.11
 72.55 93.56 99.58 93.52 85.57 5.12
 72.55 93.56 99.58 93.52 85.57 5.14
 72.62 93.46 99.59 93.53 85.57 5.15
 72.62 93.46 99.59 93.53 85.57 5.16
 72.62 93.32 99.62 93.54 85.58 5.17
 72.62 93.32 99.62 93.54 85.58 5.18
 72.62 93.32 99.62 93.54 85.58 5.19
 72.48 93.08 99.66 93.58 85.58 5.20
 72.48 93.08 99.66 93.58 85.58 5.21
 72.19 92.73 99.74 93.63 85.57 5.22
 72.19 92.73 99.74 93.63 85.57 5.23
 71.58 92.12 99.87 93.67 85.52 5.24
 71.58 92.12 99.87 93.67 85.52 5.25
 70.83 91.22 100.04 93.72 85.39 5.26
 70.83 91.22 100.04 93.72 85.39 5.27
 70.10 89.82 100.19 93.77 85.23 5.28
 70.10 89.82 100.19 93.77 85.23 5.29
 70.10 89.82 100.19 93.77 85.23 5.30
 69.65 88.45 100.28 93.81 85.08 5.31
 69.65 88.45 100.28 93.81 85.08 5.32
 69.43 87.66 100.30 93.83 84.99 5.33
 69.31 86.89 100.31 93.84 84.92 5.34
 69.31 86.89 100.31 93.84 84.92 5.35
 69.23 85.81 100.32 93.85 84.87 5.36
 69.23 85.81 100.32 93.85 84.87 5.37
 69.23 85.81 100.32 93.85 84.87 5.38
 69.23 85.81 100.32 93.85 84.87 5.40
 69.11 83.73 100.32 93.85 84.82 5.41
 69.11 83.73 100.32 93.85 84.82 5.42
 69.07 83.21 100.32 93.85 84.80 5.43
 69.02 82.70 100.32 93.85 84.77 5.44
 69.02 82.70 100.32 93.85 84.77 5.45
 68.99 80.86 100.31 93.83 84.73 5.46
 68.95 79.21 100.30 93.82 84.71 5.47
 68.90 77.93 100.28 93.79 84.69 5.48
 68.84 76.92 100.25 93.75 84.68 5.49
 68.84 76.92 100.25 93.75 84.68 5.50
 68.77 75.92 100.21 93.71 84.68 5.51
 68.72 75.09 100.16 93.70 84.67 5.52
 68.72 75.09 100.16 93.70 84.67 5.53
 68.68 74.28 100.10 93.68 84.66 5.54
 68.65 73.64 100.04 93.62 84.63 5.55
 68.65 73.64 100.04 93.62 84.63 5.56
 68.63 73.18 99.99 93.57 84.60 5.57
 68.62 72.63 99.90 93.51 84.57 5.58
 68.60 71.96 99.82 93.49 84.54 5.59
 68.60 71.96 99.82 93.49 84.54 5.60
 68.57 71.14 99.75 93.46 84.51 5.61
 68.54 70.34 99.69 93.43 84.50 5.62
 68.51 69.63 99.64 93.42 84.49 5.63
 68.51 69.63 99.64 93.42 84.49 5.64
 68.47 69.10 99.59 93.40 84.47 5.65
 68.44 68.70 99.55 93.35 84.45 5.66
 68.44 68.70 99.55 93.35 84.45 5.67
 68.39 68.32 99.51 93.33 84.42 5.68
 68.34 67.96 99.46 93.32 84.40 5.69
 68.34 67.96 99.46 93.32 84.40 5.71
 68.30 67.59 99.42 93.30 84.39 5.72
 68.27 67.31 99.39 93.29 84.37 5.73
 68.27 67.31 99.39 93.29 84.37 5.74
 68.24 67.10 99.35 93.29 84.35 5.75
 68.24 67.10 99.35 93.29 84.35 5.76
 68.20 66.95 99.32 93.29 84.34 5.77
 68.20 66.95 99.32 93.29 84.34 5.78
 68.20 66.86 99.30 93.26 84.33 5.79
 68.20 66.86 99.30 93.26 84.33 5.80
 68.20 66.80 99.26 93.24 84.31 5.80
 68.20 66.73 99.24 93.23 84.30 5.81
 68.20 66.73 99.24 93.23 84.30 5.82
 68.26 66.64 99.22 93.21 84.29 5.83
 68.26 66.64 99.22 93.21 84.29 5.84
 68.26 66.64 99.22 93.21 84.29 5.85
 68.32 66.59 99.21 93.21 84.29 5.86
 68.32 66.59 99.21 93.21 84.29 5.87
 68.46 66.56 99.21 93.20 84.30 5.88
 68.46 66.56 99.21 93.20 84.30 5.89
 68.68 66.54 99.21 93.18 84.33 5.90
 68.68 66.54 99.21 93.18 84.33 5.91
 69.05 66.54 99.21 93.14 84.36 5.92
 69.05 66.54 99.21 93.14 84.36 5.93
 69.83 66.77 99.20 93.02 84.41 5.94
 69.83 66.77 99.20 93.02 84.41 5.95
 69.83 66.77 99.20 93.02 84.41 5.96
 71.09 69.48 99.08 92.66 84.46 5.97
 71.09 69.48 99.08 92.66 84.46 5.98
 71.09 69.48 99.08 92.66 84.46 5.99
 73.05 72.62 98.85 92.21 84.41 6.00
 73.05 72.62 98.85 92.21 84.41 6.01
 73.05 72.62 98.85 92.21 84.41 6.02
 75.44 76.09 98.28 91.44 84.21 6.03
 75.44 76.09 98.28 91.44 84.21 6.04
 75.44 76.09 98.28 91.44 84.21 6.05
 76.72 78.20 97.85 90.93 84.02 6.06
 77.34 79.15 97.69 90.74 83.94 6.07
 77.90 80.47 97.51 90.58 83.87 6.08
 78.29 82.06 97.38 90.45 83.82 6.09
 78.29 82.06 97.38 90.45 83.82 6.10
 78.52 83.68 97.34 90.40 83.76 6.11
 78.59 85.17 97.30 90.38 83.73 6.12
 78.60 86.42 97.29 90.38 83.73 6.13
 78.55 87.32 97.28 90.41 83.74 6.14
 78.55 87.32 97.28 90.41 83.74 6.15
 78.50 88.00 97.27 90.43 83.75 6.16
 78.45 88.53 97.26 90.46 83.77 6.17
 78.41 88.97 97.25 90.49 83.79 6.18
 78.36 89.32 97.24 90.52 83.80 6.19
 78.30 89.61 97.24 90.55 83.82 6.20
 78.30 89.61 97.24 90.55 83.82 6.21
 78.27 89.81 97.24 90.57 83.84 6.22
 78.25 89.96 97.24 90.60 83.86 6.23
 78.25 89.96 97.24 90.60 83.86 6.24
 78.23 90.09 97.24 90.63 83.88 6.25
 78.21 90.19 97.24 90.65 83.89 6.26
 78.21 90.19 97.24 90.65 83.89 6.27
 78.17 90.29 97.24 90.68 83.91 6.28
 78.11 90.40 97.23 90.72 83.94 6.29
 78.06 90.46 97.23 90.73 83.95 6.31
 78.01 90.55 97.21 90.76 83.97 6.32
 78.01 90.55 97.21 90.76 83.97 6.33
 77.97 90.64 97.19 90.78 83.99 6.34
 77.91 90.73 97.17 90.80 84.01 6.35
 77.91 90.73 97.17 90.80 84.01 6.36
 77.85 90.83 97.13 90.83 84.03 6.37
 77.73 90.90 97.10 90.84 84.05 6.38
 77.73 90.90 97.10 90.84 84.05 6.39
 77.60 90.98 97.06 90.87 84.07 6.40
 77.60 90.98 97.06 90.87 84.07 6.41
 77.54 91.05 96.99 90.89 84.08 6.42
 77.54 91.05 96.99 90.89 84.08 6.43
 77.45 91.17 96.84 90.90 84.09 6.44
 77.45 91.17 96.84 90.90 84.09 6.45
 77.45 91.17 96.84 90.90 84.09 6.46
 77.31 91.31 96.60 90.92 84.09 6.47
 77.31 91.31 96.60 90.92 84.09 6.48
 77.13 91.44 96.24 90.95 84.10 6.49
 77.13 91.44 96.24 90.95 84.10 6.50
 76.82 91.57 95.69 90.96 84.08 6.51
 76.82 91.57 95.69 90.96 84.08 6.52
 76.82 91.57 95.69 90.96 84.08 6.53
 76.45 91.69 94.79 90.97 84.03 6.54
 76.45 91.69 94.79 90.97 84.03 6.55
 75.96 91.81 93.76 90.97 83.91 6.56
 75.96 91.81 93.76 90.97 83.91 6.57
 75.50 91.96 92.44 90.97 83.74 6.58
 75.50 91.96 92.44 90.97 83.74 6.59
 75.04 92.08 90.96 90.96 83.58 6.60
 74.70 92.14 90.44 90.89 83.45 6.61
 74.70 92.14 90.44 90.89 83.45 6.62
 74.70 92.14 90.44 90.89 83.45 6.63
 74.47 92.15 90.53 90.79 83.33 6.64
 74.23 92.16 90.66 90.64 83.23 6.66
 74.23 92.16 90.66 90.64 83.23 6.67
 74.02 92.16 90.75 90.38 83.13 6.67
 73.81 92.15 90.82 89.89 83.03 6.68
 73.69 92.13 90.86 89.32 82.95 6.70
 73.69 92.13 90.86 89.32 82.95 6.71
 73.62 92.08 90.90 88.51 82.86 6.72
 73.50 92.00 90.92 88.13 82.78 6.73
 73.50 92.00 90.92 88.13 82.78 6.74
 73.31 91.88 90.94 87.89 82.71 6.75
 73.31 91.88 90.94 87.89 82.71 6.76
 73.17 91.70 91.19 87.64 82.63 6.77
 73.04 91.49 91.39 87.38 82.57 6.78
 72.95 91.25 91.53 87.14 82.52 6.79
 72.95 91.25 91.53 87.14 82.52 6.80
 72.85 90.98 92.04 86.96 82.47 6.81
 72.76 90.64 93.00 86.81 82.42 6.82
 72.76 90.64 93.00 86.81 82.42 6.83
 72.68 90.42 93.72 86.69 82.36 6.84
 72.68 90.42 93.72 86.69 82.36 6.85
 72.61 90.35 94.02 86.56 82.31 6.86
 72.61 90.35 94.02 86.56 82.31 6.87
 72.55 90.30 94.23 86.43 82.27 6.88
 72.51 90.24 94.47 86.29 82.22 6.89
 72.51 90.24 94.47 86.29 82.22 6.89
 72.47 90.18 94.69 86.15 82.17 6.90
 72.42 90.12 94.85 85.99 82.13 6.91
 72.42 90.12 94.85 85.99 82.13 6.93
 72.39 90.07 94.96 85.83 82.09 6.94
 72.36 90.02 95.04 85.67 82.06 6.95
 72.36 90.02 95.04 85.67 82.06 6.96
 72.31 89.98 95.24 85.52 82.04 6.97
 72.31 89.98 95.24 85.52 82.04 6.98
 72.29 89.95 95.41 85.38 82.01 6.99
 72.26 89.91 95.52 85.26 81.98 7.00
 72.26 89.91 95.52 85.26 81.98 7.01
 72.20 89.88 95.62 85.12 81.96 7.02
 72.12 89.86 95.69 85.00 81.93 7.03
 72.12 89.86 95.69 85.00 81.93 7.04
 72.03 89.83 95.74 84.88 81.91 7.05
 72.03 89.83 95.74 84.88 81.91 7.06
 71.96 89.80 95.79 84.78 81.89 7.07
 71.96 89.80 95.79 84.78 81.89 7.08
 71.92 89.78 95.83 84.68 81.87 7.09
 71.89 89.77 95.86 84.59 81.85 7.10
 71.89 89.77 95.86 84.59 81.85 7.11
 71.85 89.75 95.87 84.53 81.84 7.12
 71.85 89.75 95.87 84.53 81.84 7.13
 71.82 89.74 95.88 84.49 81.83 7.14
 71.82 89.74 95.88 84.49 81.83 7.16
 71.82 89.74 95.88 84.49 81.83 7.17
 71.79 89.73 95.89 84.47 81.82 7.18
 71.79 89.73 95.89 84.47 81.82 7.19
 71.78 89.70 95.89 84.51 81.83 7.20
 71.78 89.70 95.89 84.51 81.83 7.21
 71.78 89.70 95.89 84.51 81.83 7.22
 71.77 89.66 95.90 84.72 81.85 7.23
 71.77 89.66 95.90 84.72 81.85 7.24
 71.75 89.61 95.90 85.05 81.89 7.25
 71.75 89.61 95.90 85.05 81.89 7.26
 71.75 89.61 95.90 85.05 81.89 7.27
 71.76 89.57 95.90 85.51 81.95 7.28
 71.76 89.57 95.90 85.51 81.95 7.29
 71.78 89.51 95.90 86.20 82.02 7.30
 71.78 89.51 95.90 86.20 82.02 7.31
 71.78 89.51 95.90 86.20 82.02 7.32
 71.84 89.50 93.69 86.73 82.16 7.33
 71.84 89.50 93.69 86.73 82.16 7.34
 72.00 89.48 92.84 87.22 82.29 7.36
 72.00 89.48 92.84 87.22 82.29 7.37
 72.00 89.48 92.84 87.22 82.29 7.38
 72.25 89.18 92.87 87.65 82.50 7.39
 72.55 88.85 93.02 87.95 82.66 7.40
 72.55 88.85 93.02 87.95 82.66 7.41
 72.91 88.67 93.34 88.24 82.81 7.42
 73.31 88.58 93.74 88.60 82.89 7.43
 73.31 88.58 93.74 88.60 82.89 7.44
 73.66 88.55 94.18 88.98 83.00 7.45
 73.96 88.54 94.63 89.31 83.13 7.46
 73.96 88.54 94.63 89.31 83.13 7.47
 74.21 88.54 95.09 89.59 83.25 7.48
 74.21 88.54 95.09 89.59 83.25 7.49
 74.40 88.55 95.47 89.80 83.34 7.50
 74.57 88.61 95.82 90.05 83.43 7.51
 74.57 88.61 95.82 90.05 83.43 7.52
 74.57 88.61 95.82 90.05 83.43 7.53
 74.57 88.61 95.82 90.05 83.43 7.54
 74.57 88.61 95.82 90.05 83.43 7.55
 74.79 88.74 96.32 90.49 83.54 7.56
 74.86 88.79 96.47 90.61 83.58 7.57
 74.86 88.79 96.47 90.61 83.58 7.58
 74.96 88.89 96.72 90.74 83.65 7.59
 75.04 89.00 96.94 90.85 83.71 7.60
 75.04 89.00 96.94 90.85 83.71 7.61
 75.10 89.12 97.07 90.98 83.76 7.62
 75.14 89.23 97.18 91.09 83.82 7.63
 75.14 89.23 97.18 91.09 83.82 7.64
 75.17 89.34 97.31 91.17 83.86 7.65
 75.19 89.44 97.39 91.23 83.92 7.66
 75.20 89.53 97.46 91.26 84.00 7.67
 75.20 89.53 97.46 91.26 84.00 7.68
 75.21 89.61 97.53 91.27 84.05 7.70
 75.21 89.61 97.53 91.27 84.05 7.71
 75.21 89.61 97.53 91.27 84.05 7.72
 75.22 89.70 97.61 91.28 84.09 7.73
 75.22 89.70 97.61 91.28 84.09 7.74
 75.23 89.81 97.68 91.28 84.15 7.75
 75.24 89.95 97.74 91.24 84.22 7.76
 75.24 89.95 97.74 91.24 84.22 7.77
 75.25 90.13 97.80 91.09 84.28 7.78
 75.25 90.13 97.80 91.09 84.28 7.79
 75.23 90.31 97.87 90.82 84.31 7.80
 75.23 90.31 97.87 90.82 84.31 7.81
 75.17 90.47 97.93 90.38 84.32 7.82
 75.17 90.47 97.93 90.38 84.32 7.83
 75.10 90.59 97.98 89.70 84.32 7.84
 75.10 90.59 97.98 89.70 84.32 7.85
 75.10 90.59 97.98 89.70 84.32 7.86
 74.94 90.72 98.00 88.59 84.31 7.87
 74.94 90.72 98.00 88.59 84.31 7.88
 74.71 90.85 98.01 87.13 84.29 7.89
 74.71 90.85 98.01 87.13 84.29 7.90
 74.45 90.94 98.00 85.81 84.29 7.91
 74.45 90.94 98.00 85.81 84.29 7.92
 74.21 90.99 97.97 84.52 84.32 7.93
 74.21 90.99 97.97 84.52 84.32 7.94
 74.21 90.99 97.97 84.52 84.32 7.95
 73.89 91.03 97.89 82.80 84.35 7.95
 73.89 91.03 97.89 82.80 84.35 7.96
 73.63 91.04 97.76 82.53 84.37 7.97
 73.31 91.05 97.50 82.60 84.39 7.98
 73.11 91.06 97.26 83.19 84.40 7.99
 73.11 91.06 97.26 83.19 84.40 8.00
 72.90 91.06 96.96 84.04 84.40 8.01
 72.73 91.07 96.65 84.85 84.39 8.02
 72.59 91.06 96.32 85.34 84.37 8.03
 72.59 91.06 96.32 85.34 84.37 8.04
 72.47 91.03 95.93 85.57 84.33 8.05
 72.37 90.98 95.53 85.66 84.28 8.06
 72.30 90.89 95.16 85.69 84.18 8.07
 72.30 90.89 95.16 85.69 84.18 8.08
 72.25 90.76 94.86 85.69 84.08 8.09
 72.21 90.59 94.59 85.66 83.96 8.10
 72.21 90.59 94.59 85.66 83.96 8.11
 72.19 90.41 94.38 85.57 83.84 8.12
 72.19 90.41 94.38 85.57 83.84 8.13
 72.17 90.25 94.19 85.45 83.75 8.14
 72.16 90.10 94.04 85.29 83.67 8.15
 72.16 90.10 94.04 85.29 83.67 8.16
 72.15 89.96 93.93 85.18 83.59 8.17
 72.15 89.96 93.93 85.18 83.59 8.18
 72.14 89.83 93.84 85.15 83.53 8.19
 72.14 89.71 93.76 85.10 83.46 8.20
 72.14 89.71 93.76 85.10 83.46 8.21
 72.13 89.61 93.69 85.03 83.42 8.22
 72.13 89.51 93.63 84.94 83.38 8.23
 72.13 89.51 93.63 84.94 83.38 8.25
 72.13 89.41 93.58 84.84 83.36 8.26
 72.13 89.41 93.58 84.84 83.36 8.27
 72.13 89.33 93.57 84.76 83.33 8.28
 72.13 89.33 93.57 84.76 83.33 8.29
 72.13 89.27 93.57 84.72 83.32 8.30
 72.13 89.27 93.57 84.72 83.32 8.31
 72.13 89.24 93.56 84.70 83.31 8.32
 72.13 89.24 93.56 84.70 83.31 8.33
 72.13 89.22 93.56 84.70 83.30 8.34
 72.13 89.22 93.56 84.70 83.30 8.35
 72.14 89.20 93.56 84.70 83.30 8.36
 72.14 89.20 93.56 84.70 83.30 8.37
 72.15 89.18 93.55 84.69 83.29 8.38
 72.15 89.18 93.55 84.69 83.29 8.39
 72.15 89.18 93.55 84.69 83.29 8.40
 72.16 89.16 93.53 84.69 83.28 8.41
 72.16 89.16 93.53 84.69 83.28 8.42
 72.18 89.14 93.52 84.69 83.27 8.43
 72.18 89.14 93.52 84.69 83.27 8.44
 72.18 89.14 93.52 84.69 83.27 8.46
 72.21 89.11 93.51 84.68 83.27 8.47
 72.21 89.11 93.51 84.68 83.27 8.48
 72.21 89.11 93.51 84.68 83.27 8.49
 72.21 89.11 93.51 84.68 83.27 8.50
 72.25 89.06 93.51 84.67 83.27 8.51
 72.25 89.06 93.51 84.67 83.27 8.52
 72.30 88.96 93.54 84.68 83.34 8.53
 72.30 88.96 93.54 84.68 83.34 8.54
 72.30 88.96 93.54 84.68 83.34 8.55
 72.40 88.80 93.66 84.70 83.49 8.56
 72.40 88.80 93.66 84.70 83.49 8.57
 72.40 88.80 93.66 84.70 83.49 8.58
 72.64 88.60 93.93 85.03 83.73 8.59
 72.64 88.60 93.93 85.03 83.73 8.60
 72.64 88.60 93.93 85.03 83.73 8.61
 72.64 88.60 93.93 85.03 83.73 8.62
 72.86 88.52 94.38 85.05 83.95 8.63
 72.86 88.52 94.38 85.05 83.95 8.64
 73.01 88.51 94.69 85.06 84.08 8.65
 73.01 88.51 94.69 85.06 84.08 8.66
 73.27 88.50 95.06 85.29 84.25 8.67
 73.27 88.50 95.06 85.29 84.25 8.69
 73.48 88.50 95.35 85.83 84.34 8.70
 73.48 88.50 95.35 85.83 84.34 8.71
 73.64 88.51 95.59 86.51 84.40 8.72
 73.64 88.51 95.59 86.51 84.40 8.73
 73.77 88.53 95.83 87.12 84.44 8.74
 73.77 88.53 95.83 87.12 84.44 8.75
 73.90 88.55 96.05 87.60 84.48 8.76
 73.90 88.55 96.05 87.60 84.48 8.77
 74.02 88.56 96.29 88.02 84.52 8.78
 74.02 88.56 96.29 88.02 84.52 8.79
 74.13 88.58 96.51 88.36 84.57 8.80
 74.13 88.58 96.51 88.36 84.57 8.81
 74.19 88.61 96.68 88.66 84.61 8.82
 74.23 88.65 96.86 88.90 84.64 8.83
 74.23 88.65 96.86 88.90 84.64 8.84
 74.23 88.65 96.86 88.90 84.64 8.85
 74.25 88.69 97.01 89.10 84.66 8.86
 74.28 88.73 97.15 89.32 84.68 8.87
 74.28 88.73 97.15 89.32 84.68 8.88
 74.28 88.73 97.15 89.32 84.68 8.89
 74.28 88.73 97.15 89.32 84.68 8.90
 74.33 88.78 97.37 89.59 84.68 8.91
 74.35 88.80 97.47 89.74 84.69 8.92
 74.35 88.80 97.47 89.74 84.69 8.93
 74.36 88.84 97.57 89.90 84.69 8.94
 74.36 88.84 97.57 89.90 84.69 8.95
 74.38 88.88 97.64 90.06 84.70 8.96
 74.38 88.88 97.64 90.06 84.70 8.97
 74.38 88.92 97.74 90.19 84.70 8.98
 74.38 88.92 97.74 90.19 84.70 8.99
 74.39 88.95 97.84 90.33 84.70 9.00
 74.39 88.95 97.84 90.33 84.70 9.01
 74.39 88.97 97.95 90.45 84.70 9.02
 74.39 88.97 97.95 90.45 84.70 9.03
 74.40 88.99 98.06 90.54 84.69 9.04
 74.40 88.99 98.06 90.54 84.69 9.05
 74.40 88.99 98.06 90.54 84.69 9.06
 74.39 89.00 98.16 90.61 84.64 9.07
 74.39 89.00 98.16 90.61 84.64 9.08
 74.37 89.01 98.25 90.63 84.44 9.09
 74.37 89.01 98.25 90.63 84.44 9.10
 74.31 89.03 98.37 90.65 83.97 9.10
 74.31 89.03 98.37 90.65 83.97 9.11
 74.31 89.03 98.37 90.65 83.97 9.12
 74.17 89.03 98.48 90.69 83.24 9.13
 74.17 89.03 98.48 90.69 83.24 9.14
 73.89 89.03 98.57 90.78 82.37 9.15
 73.89 89.03 98.57 90.78 82.37 9.16
 73.48 89.03 98.69 90.85 81.59 9.17
 73.48 89.03 98.69 90.85 81.59 9.18
 73.16 89.03 98.82 90.90 80.55 9.20
 73.16 89.03 98.82 90.90 80.55 9.21
 73.16 89.03 98.82 90.90 80.55 9.22
 73.00 89.03 98.93 90.94 79.70 9.23
 73.00 89.03 98.93 90.94 79.70 9.24
 72.86 89.03 99.01 90.96 78.72 9.25
 72.86 89.03 99.01 90.96 78.72 9.26
 72.76 89.03 99.08 90.96 78.11 9.27
 72.76 89.03 99.08 90.96 78.11 9.28
 72.65 89.03 99.13 90.94 77.90 9.29
 72.52 89.04 99.16 90.83 77.85 9.30
 72.52 89.04 99.16 90.83 77.85 9.31
 72.40 89.04 99.17 90.63 77.82 9.32
 72.40 89.04 99.17 90.63 77.82 9.33
 72.25 89.04 99.17 90.11 77.79 9.34
 72.25 89.04 99.17 90.11 77.79 9.35
 72.14 89.04 99.16 89.44 77.73 9.36
 72.04 89.04 99.11 88.85 77.66 9.37
 72.04 89.04 99.11 88.85 77.66 9.38
 71.97 89.04 99.06 88.56 77.41 9.39
 71.97 89.04 99.06 88.56 77.41 9.41
 71.94 89.03 99.00 88.35 77.09 9.42
 71.93 89.02 98.95 88.11 76.76 9.43
 71.93 89.02 98.95 88.11 76.76 9.44
 71.93 89.02 98.89 87.87 76.21 9.45
 71.93 89.02 98.89 87.87 76.21 9.46
 71.94 89.00 98.82 87.69 75.61 9.47
 71.94 89.00 98.82 87.69 75.61 9.48
 71.97 88.99 98.77 87.52 75.11 9.49
 72.01 88.97 98.72 87.39 74.65 9.50
 72.01 88.97 98.72 87.39 74.65 9.51
 72.04 88.95 98.66 87.25 74.06 9.52
 72.04 88.95 98.66 87.25 74.06 9.53
 72.08 88.94 98.63 86.98 73.60 9.54
 72.08 88.94 98.63 86.98 73.60 9.55
 72.11 88.93 98.61 86.74 73.20 9.56
 72.11 88.93 98.61 86.74 73.20 9.57
 72.15 88.92 98.58 86.56 72.82 9.58
 72.15 88.92 98.58 86.56 72.82 9.59
 72.19 88.90 98.57 86.40 72.50 9.60
 72.19 88.90 98.57 86.40 72.50 9.62
 72.22 88.89 98.56 86.22 72.24 9.63
 72.22 88.89 98.56 86.22 72.24 9.64
 72.25 88.87 98.53 86.05 71.98 9.65
 72.25 88.87 98.53 86.05 71.98 9.66
 72.28 88.84 98.49 85.96 71.77 9.67
 72.28 88.84 98.49 85.96 71.77 9.68
 72.28 88.84 98.49 85.96 71.77 9.69
 72.33 88.81 98.45 85.91 71.55 9.70
 72.33 88.81 98.45 85.91 71.55 9.71
 72.37 88.78 98.41 85.87 71.39 9.72
 72.37 88.78 98.41 85.87 71.39 9.73
 72.37 88.78 98.41 85.87 71.39 9.74
 72.42 88.74 98.39 85.84 71.22 9.75
 72.42 88.74 98.39 85.84 71.22 9.76
 72.48 88.69 98.38 85.83 71.08 9.77
 72.48 88.69 98.38 85.83 71.08 9.78
 72.48 88.69 98.38 85.83 71.08 9.79
 72.57 88.63 98.37 85.81 70.96 9.80
 72.57 88.63 98.37 85.81 70.96 9.81
 72.57 88.63 98.37 85.81 70.96 9.82
 72.72 88.55 98.37 85.84 70.84 9.83
 72.72 88.55 98.37 85.84 70.84 9.84
 73.07 88.48 98.35 86.03 70.71 9.85
 73.07 88.48 98.35 86.03 70.71 9.86
 73.07 88.48 98.35 86.03 70.71 9.87
 73.64 88.40 98.26 87.01 70.85 9.88
 73.64 88.40 98.26 87.01 70.85 9.89
 73.64 88.40 98.26 87.01 70.85 9.90
 74.16 88.41 98.22 87.96 70.90 9.91
 74.16 88.41 98.22 87.96 70.90 9.92
 74.16 88.41 98.22 87.96 70.90 9.93
 74.81 88.52 98.21 88.62 71.09 9.94
 74.81 88.52 98.21 88.62 71.09 9.95
 75.47 88.76 98.23 89.04 71.79 9.96
 75.47 88.76 98.23 89.04 71.79 9.97
 76.00 89.09 98.28 89.37 73.27 9.98
 76.00 89.09 98.28 89.37 73.27 9.99
 76.41 89.72 98.35 89.65 75.74 10.00
 76.70 90.42 98.46 89.92 77.66 10.01
 76.70 90.42 98.46 89.92 77.66 10.02
 76.89 90.99 98.59 90.11 78.72 10.03
 76.89 90.99 98.59 90.11 78.72 10.04
 77.01 91.41 98.70 90.26 79.33 10.05
 77.09 91.74 98.78 90.39 79.77 10.06
 77.09 91.74 98.78 90.39 79.77 10.07
 77.09 91.74 98.78 90.39 79.77 10.08
 77.09 91.74 98.78 90.39 79.77 10.09
 77.09 91.74 98.78 90.39 79.77 10.10
 77.24 92.16 98.89 90.58 80.34 10.11
 77.27 92.27 98.91 90.64 80.51 10.12
 77.27 92.27 98.91 90.64 80.51 10.13
 77.34 92.42 98.94 90.75 80.75 10.14
 77.34 92.42 98.94 90.75 80.75 10.15
 77.40 92.54 98.97 90.84 80.96 10.16
 77.45 92.64 99.00 90.93 81.15 10.17
 77.45 92.64 99.00 90.93 81.15 10.18
 77.50 92.73 99.02 91.00 81.32 10.19
 77.55 92.80 99.06 91.05 81.47 10.20
 77.55 92.80 99.06 91.05 81.47 10.21
 77.58 92.85 99.08 91.08 81.60 10.22
 77.58 92.85 99.08 91.08 81.60 10.23
 77.62 92.90 99.10 91.14 81.72 10.24
 77.65 92.94 99.12 91.19 81.83 10.25
 77.65 92.94 99.12 91.19 81.83 10.26
 77.68 92.97 99.13 91.24 81.94 10.27
 77.68 92.97 99.13 91.24 81.94 10.28
 77.71 92.99 99.15 91.29 82.08 10.29
 77.71 92.99 99.15 91.29 82.08 10.30
 77.73 93.01 99.16 91.35 82.20 10.31
 77.73 93.01 99.16 91.35 82.20 10.32
 77.76 93.02 99.18 91.40 82.30 10.33
 77.76 93.02 99.18 91.40 82.30 10.34
 77.76 93.02 99.18 91.40 82.30 10.35
 77.76 93.02 99.18 91.40 82.30 10.36
 77.78 93.04 99.19 91.45 82.41 10.37
 77.78 93.04 99.19 91.45 82.41 10.38
 77.80 93.06 99.20 91.49 82.49 10.39
 77.80 93.06 99.20 91.49 82.49 10.41
 77.82 93.08 99.21 91.53 82.58 10.42
 77.82 93.08 99.21 91.53 82.58 10.43
 77.82 93.08 99.21 91.53 82.58 10.44
 77.83 93.11 99.22 91.57 82.64 10.45
 77.83 93.11 99.22 91.57 82.64 10.46
 77.83 93.11 99.22 91.57 82.64 10.47
 77.47 93.16 99.22 91.59 82.69 10.48
 77.47 93.16 99.22 91.59 82.69 10.49
 77.47 93.16 99.22 91.59 82.69 10.50
 75.96 93.25 99.22 91.61 82.75 10.51
 75.96 93.25 99.22 91.61 82.75 10.53
 75.96 93.25 99.22 91.61 82.75 10.54
 73.00 93.36 99.22 91.63 82.80 10.55
 73.00 93.36 99.22 91.63 82.80 10.56
 70.18 93.45 99.22 91.64 82.82 10.57
 70.18 93.45 99.22 91.64 82.82 10.58
 70.18 93.45 99.22 91.64 82.82 10.59
 67.67 93.49 99.21 91.65 82.86 10.60
 67.67 93.49 99.21 91.65 82.86 10.61
 65.26 93.49 99.21 91.66 82.88 10.62
 64.29 93.50 99.20 91.67 82.94 10.63
 64.29 93.50 99.20 91.67 82.94 10.64
 63.15 93.51 99.18 91.68 83.02 10.65
 61.45 93.51 99.15 91.69 83.08 10.66
 59.87 93.49 99.11 91.70 83.15 10.67
 58.38 93.46 99.05 91.71 83.21 10.68
 58.38 93.46 99.05 91.71 83.21 10.69
 57.59 93.39 99.01 91.72 83.27 10.70
 56.94 93.31 98.95 91.73 83.32 10.71
 56.61 93.23 98.91 91.74 83.35 10.72
 56.27 93.14 98.85 91.75 83.39 10.73
 56.27 93.14 98.85 91.75 83.39 10.74
 56.10 93.05 98.80 91.76 83.42 10.75
 55.97 92.96 98.76 91.76 83.44 10.76
 55.85 92.88 98.70 91.77 83.47 10.77
 55.85 92.88 98.70 91.77 83.47 10.78
 55.79 92.80 98.64 91.77 83.48 10.79
 55.79 92.80 98.64 91.77 83.48 10.80
 55.73 92.73 98.58 91.77 83.49 10.81
 55.73 92.73 98.58 91.77 83.49 10.82
 55.62 92.64 98.51 91.78 83.50 10.83
 55.60 92.55 98.45 91.78 83.52 10.84
 55.60 92.55 98.45 91.78 83.52 10.85
 55.55 92.45 98.40 91.78 83.54 10.86
 55.50 92.41 98.37 91.78 83.55 10.87
 55.38 92.37 98.35 91.78 83.57 10.88
 55.38 92.37 98.35 91.78 83.57 10.90
 55.28 92.34 98.33 91.78 83.58 10.91
 54.87 92.31 98.30 91.79 83.60 10.92
 54.87 92.31 98.30 91.79 83.60 10.93
 54.99 92.30 98.28 91.79 83.61 10.94
 54.93 92.28 98.23 91.80 83.61 10.95
 54.93 92.28 98.23 91.80 83.61 10.96
 54.84 92.26 98.20 91.80 83.62 10.97
 54.71 92.24 98.16 91.81 83.63 10.98
 54.60 92.21 98.12 91.81 83.64 10.99
 54.60 92.21 98.12 91.81 83.64 11.00
 54.49 92.18 98.09 91.82 83.65 11.01
 54.42 92.14 98.06 91.83 83.65 11.02
 54.42 92.14 98.06 91.83 83.65 11.03
 54.36 92.09 98.03 91.83 83.66 11.04
 54.36 92.09 98.03 91.83 83.66 11.05
 54.31 92.04 97.99 91.84 83.66 11.06
 54.29 91.98 97.97 91.85 83.66 11.07
 54.28 91.92 97.94 91.85 83.67 11.08
 54.28 91.92 97.94 91.85 83.67 11.09
 54.27 91.88 97.92 91.86 83.68 11.10
 54.26 91.84 97.90 91.87 83.68 11.11
 54.26 91.84 97.90 91.87 83.68 11.12
 54.26 91.80 97.88 91.87 83.69 11.13
 54.26 91.77 97.85 91.88 83.70 11.14
 54.26 91.74 97.83 91.89 83.71 11.15
 54.26 91.74 97.83 91.89 83.71 11.16
 54.26 91.73 97.81 91.90 83.72 11.17
 54.26 91.73 97.81 91.90 83.72 11.18
 54.21 91.72 97.79 91.90 83.73 11.19
 54.15 91.70 97.78 91.91 83.74 11.20
 54.15 91.70 97.78 91.91 83.74 11.21
 54.15 91.70 97.78 91.91 83.74 11.22
 54.12 91.69 97.75 91.92 83.75 11.23
 54.12 91.69 97.75 91.92 83.75 11.24
 54.14 91.68 97.72 91.91 83.76 11.25
 54.14 91.68 97.72 91.91 83.76 11.26
 54.14 91.68 97.72 91.91 83.76 11.27
 54.49 91.67 97.70 91.91 83.79 11.28
 54.49 91.67 97.70 91.91 83.79 11.29
 55.21 91.65 97.68 91.93 83.83 11.30
 55.21 91.65 97.68 91.93 83.83 11.31
 60.44 91.45 97.64 91.98 83.93 11.32
 60.44 91.45 97.64 91.98 83.93 11.33
 60.44 91.45 97.64 91.98 83.93 11.34
 66.22 91.35 97.55 92.08 84.02 11.35
 66.22 91.35 97.55 92.08 84.02 11.36
 68.57 91.30 97.50 92.13 84.09 11.37
 69.67 91.27 97.48 92.18 84.13 11.38
 70.47 91.27 97.45 92.24 84.18 11.39
 70.47 91.27 97.45 92.24 84.18 11.40
 71.18 91.29 97.45 92.31 84.24 11.41
 71.77 91.31 97.46 92.39 84.30 11.42
 72.26 91.34 97.48 92.45 84.38 11.43
 72.71 91.38 97.50 92.52 84.47 11.44
 72.71 91.38 97.50 92.52 84.47 11.45
 73.10 91.43 97.54 92.59 84.56 11.46
 73.46 91.48 97.59 92.65 84.68 11.47
 73.46 91.48 97.59 92.65 84.68 11.48
 73.78 91.54 97.64 92.72 84.81 11.49
 73.96 91.60 97.66 92.75 84.87 11.50
 74.13 91.68 97.71 92.80 84.96 11.51
 74.28 91.73 97.74 92.83 85.03 11.52
 74.41 91.76 97.77 92.87 85.12 11.53
 74.41 91.76 97.77 92.87 85.12 11.54
 74.50 91.78 97.80 92.90 85.20 11.55
 74.57 91.80 97.82 92.92 85.28 11.56
 74.62 91.81 97.84 92.94 85.33 11.58
 74.67 91.82 97.85 92.95 85.36 11.59
 74.71 91.83 97.86 92.96 85.38 11.60
 74.71 91.83 97.86 92.96 85.38 11.61
 74.77 91.84 97.87 92.98 85.40 11.62
 74.77 91.84 97.87 92.98 85.40 11.63
 74.81 91.86 97.88 92.99 85.41 11.64
 74.81 91.86 97.88 92.99 85.41 11.65
 74.81 91.86 97.88 92.99 85.41 11.66
 74.85 91.87 97.89 93.00 85.45 11.67
 74.85 91.87 97.89 93.00 85.45 11.68
 74.87 91.88 97.90 93.02 85.47 11.69
 74.87 91.88 97.90 93.02 85.47 11.70
 74.88 91.87 97.91 93.03 85.49 11.71
 74.88 91.87 97.91 93.03 85.49 11.72
 74.90 91.82 97.92 93.05 85.50 11.73
 74.90 91.82 97.92 93.05 85.50 11.74
 74.90 91.82 97.92 93.05 85.50 11.75
 74.90 91.72 97.94 93.06 85.51 11.76
 74.90 91.72 97.94 93.06 85.51 11.77
 74.90 91.56 97.97 93.08 85.52 11.78
 74.90 91.56 97.97 93.08 85.52 11.79
 74.90 91.56 97.97 93.08 85.52 11.80
 74.86 91.39 98.00 93.10 85.54 11.81
 74.86 91.39 98.00 93.10 85.54 11.82
 74.79 91.22 98.04 93.12 85.56 11.83
 74.79 91.22 98.04 93.12 85.56 11.84
 74.79 91.22 98.04 93.12 85.56 11.85
 74.67 91.05 98.11 93.14 85.59 11.86
 74.67 91.05 98.11 93.14 85.59 11.87
 74.67 91.05 98.11 93.14 85.59 11.88
 74.46 90.82 98.19 93.16 85.60 11.89
 74.46 90.82 98.19 93.16 85.60 11.90
 74.46 90.82 98.19 93.16 85.60 11.91
 73.94 90.38 98.34 93.24 85.60 11.92
 73.94 90.38 98.34 93.24 85.60 11.93
 73.26 89.72 98.50 93.31 85.57 11.94
 73.26 89.72 98.50 93.31 85.57 11.95
 73.26 89.72 98.50 93.31 85.57 11.96
 72.43 88.58 98.67 93.41 85.51 11.97
 71.69 87.36 98.80 93.48 85.44 11.98
 71.69 87.36 98.80 93.48 85.44 11.99
 71.10 85.12 98.87 93.54 85.35 12.00
 71.10 85.12 98.87 93.54 85.35 12.01
 70.69 83.29 98.89 93.57 85.27 12.02
 70.69 83.29 98.89 93.57 85.27 12.03
 70.42 81.08 98.90 93.59 85.20 12.04
 70.42 81.08 98.90 93.59 85.20 12.05
 70.27 79.69 98.90 93.59 85.13 12.06
 70.27 79.69 98.90 93.59 85.13 12.07
 70.17 76.19 98.88 93.58 85.07 12.08
 70.12 74.26 98.78 93.56 85.01 12.09
 70.12 74.26 98.78 93.56 85.01 12.10
 70.08 72.61 98.66 93.52 84.93 12.11
 70.03 71.23 98.53 93.48 84.82 12.12
 70.03 71.23 98.53 93.48 84.82 12.13
 69.97 70.26 98.40 93.43 84.69 12.14
 69.94 69.59 98.18 93.36 84.54 12.15
 69.92 68.73 98.00 93.27 84.36 12.16
 69.90 67.95 97.78 93.14 84.18 12.17
 69.88 67.14 97.61 93.02 84.00 12.18
 69.88 67.14 97.61 93.02 84.00 12.19
 69.87 66.46 97.45 92.92 83.84 12.20
 69.88 65.67 97.30 92.82 83.70 12.21
 69.88 64.86 97.21 92.75 83.57 12.22
 69.88 64.86 97.21 92.75 83.57 12.24
 69.90 64.08 97.12 92.69 83.44 12.24
 69.92 63.46 97.04 92.63 83.31 12.25
 69.92 63.46 97.04 92.63 83.31 12.27
 69.92 63.46 97.04 92.63 83.31 12.28
 69.92 63.46 97.04 92.63 83.31 12.29
 69.95 62.68 96.92 92.56 83.10 12.29
 69.95 62.68 96.92 92.56 83.10 12.30
 69.96 62.47 96.88 92.54 83.04 12.31
 69.98 62.17 96.82 92.50 82.96 12.32
 70.01 61.89 96.76 92.44 82.87 12.33
 70.01 61.89 96.76 92.44 82.87 12.34
 70.06 61.56 96.70 92.40 82.78 12.35
 70.06 61.56 96.70 92.40 82.78 12.36
 70.07 61.14 96.64 92.36 82.70 12.37
 70.07 61.14 96.64 92.36 82.70 12.38
 70.08 60.78 96.59 92.32 82.61 12.39
 70.08 60.78 96.59 92.32 82.61 12.40
 70.10 60.52 96.54 92.26 82.53 12.41
 70.10 60.52 96.54 92.26 82.53 12.42
 70.12 60.33 96.48 92.21 82.45 12.43
 70.12 60.33 96.48 92.21 82.45 12.44
 70.14 60.17 96.42 92.16 82.37 12.45
 70.14 60.17 96.42 92.16 82.37 12.46
 70.15 60.01 96.35 92.11 82.29 12.47
 70.15 60.01 96.35 92.11 82.29 12.48
 70.17 59.87 96.28 92.08 82.21 12.49
 70.17 59.87 96.28 92.08 82.21 12.50
 70.20 59.76 96.22 92.05 82.12 12.51
 70.20 59.76 96.22 92.05 82.12 12.52
 70.20 59.76 96.22 92.05 82.12 12.53
 70.24 59.64 96.18 92.02 82.06 12.54
 70.24 59.64 96.18 92.02 82.06 12.55
 70.24 59.64 96.18 92.02 82.06 12.56
 70.28 59.56 96.13 91.99 82.02 12.57
 70.28 59.56 96.13 91.99 82.02 12.58
 70.32 59.47 96.07 91.95 81.98 12.59
 70.32 59.47 96.07 91.95 81.98 12.60
 70.32 59.47 96.07 91.95 81.98 12.61
 70.40 59.38 96.02 91.92 81.95 12.62
 70.40 59.38 96.02 91.92 81.95 12.64
 70.40 59.38 96.02 91.92 81.95 12.65
 70.49 59.30 96.00 91.87 81.93 12.66
 70.49 59.30 96.00 91.87 81.93 12.67
 70.66 59.13 95.99 91.82 81.91 12.68
 70.66 59.13 95.99 91.82 81.91 12.69
 70.66 59.13 95.99 91.82 81.91 12.70
 70.97 58.87 96.02 91.75 81.94 12.71
 70.97 58.87 96.02 91.75 81.94 12.72
 70.97 58.87 96.02 91.75 81.94 12.73
 71.66 58.54 96.09 91.61 82.01 12.74
 71.66 58.54 96.09 91.61 82.01 12.75
 71.66 58.54 96.09 91.61 82.01 12.76
 71.66 58.54 96.09 91.61 82.01 12.77
 72.67 58.53 96.14 91.30 82.12 12.78
 72.67 58.53 96.14 91.30 82.12 12.79
 74.16 59.98 96.15 90.92 82.18 12.80
 74.16 59.98 96.15 90.92 82.18 12.81
 76.06 62.98 96.11 90.40 82.21 12.82
 76.06 62.98 96.11 90.40 82.21 12.83
 76.06 62.98 96.11 90.40 82.21 12.84
 77.86 65.83 96.00 89.89 82.28 12.85
 78.91 67.33 95.96 89.59 82.34 12.86
 78.91 67.33 95.96 89.59 82.34 12.87
 79.77 68.52 95.94 89.42 82.24 12.88
 80.62 70.58 95.95 89.35 82.23 12.89
 80.62 70.58 95.95 89.35 82.23 12.90
 81.67 73.73 95.96 89.21 82.49 12.91
 81.67 73.73 95.96 89.21 82.49 12.92
 81.99 78.52 95.96 89.21 82.59 12.93
 82.13 82.88 95.99 89.24 82.68 12.95
 82.15 85.45 96.05 89.31 82.75 12.96
 82.08 86.97 96.14 89.41 82.83 12.97
 81.98 87.89 96.29 89.53 82.89 12.98
 81.98 87.89 96.29 89.53 82.89 12.99
 81.87 88.53 96.45 89.64 82.96 13.00
 81.77 89.03 96.59 89.79 83.03 13.01
 81.77 89.03 96.59 89.79 83.03 13.02
 81.68 89.50 96.71 89.93 83.09 13.03
 81.58 89.87 96.80 90.02 83.16 13.04
 81.46 90.11 96.90 90.12 83.23 13.05
 81.46 90.11 96.90 90.12 83.23 13.06
 81.32 90.29 97.04 90.27 83.34 13.07
 81.26 90.35 97.10 90.34 83.38 13.08
 81.18 90.45 97.14 90.43 83.45 13.09
 81.11 90.55 97.19 90.51 83.53 13.10
 81.01 90.63 97.23 90.57 83.61 13.11
 81.01 90.63 97.23 90.57 83.61 13.12
 80.94 90.70 97.26 90.61 83.67 13.13
 80.85 90.78 97.29 90.65 83.72 13.14
 80.76 90.86 97.30 90.69 83.75 13.15
 80.76 90.86 97.30 90.69 83.75 13.16
 80.65 90.92 97.32 90.73 83.79 13.17
 80.53 90.96 97.33 90.77 83.84 13.18
 80.40 90.99 97.35 90.79 83.88 13.19
 80.40 90.99 97.35 90.79 83.88 13.20
 80.30 91.01 97.36 90.80 83.92 13.21
 80.30 91.01 97.36 90.80 83.92 13.22
 80.19 91.04 97.38 90.81 83.96 13.23
 80.05 91.06 97.39 90.82 84.01 13.24
 80.05 91.06 97.39 90.82 84.01 13.25
 79.91 91.09 97.39 90.84 84.04 13.26
 79.91 91.09 97.39 90.84 84.04 13.28
 79.77 91.11 97.39 90.89 84.07 13.29
 79.77 91.11 97.39 90.89 84.07 13.30
 79.77 91.11 97.39 90.89 84.07 13.31
 79.60 91.12 97.34 90.97 84.10 13.32
 79.60 91.12 97.34 90.97 84.10 13.33
 79.60 91.12 97.34 90.97 84.10 13.34
 79.36 91.17 97.12 91.07 84.15 13.35
 79.36 91.17 97.12 91.07 84.15 13.36
 79.36 91.17 97.12 91.07 84.15 13.37
 78.99 91.32 96.65 91.17 84.20 13.38
 78.99 91.32 96.65 91.17 84.20 13.39
 78.53 91.50 96.03 91.23 84.22 13.40
 78.53 91.50 96.03 91.23 84.22 13.41
 78.53 91.50 96.03 91.23 84.22 13.42
 77.90 91.61 95.23 91.28 84.19 13.43
 77.90 91.61 95.23 91.28 84.19 13.44
 76.65 91.77 94.20 91.32 84.12 13.45
 76.65 91.77 94.20 91.32 84.12 13.46
 75.59 91.90 93.09 91.34 84.03 13.47
 74.82 92.00 91.95 91.28 83.94 13.48
 74.82 92.00 91.95 91.28 83.94 13.49
 74.28 92.04 91.33 91.08 83.86 13.50
 74.28 92.04 91.33 91.08 83.86 13.51
 73.87 92.06 91.08 90.53 83.79 13.52
 73.60 92.05 91.73 89.69 83.73 13.53
 73.35 92.02 92.28 88.85 83.66 13.54
 73.35 92.02 92.28 88.85 83.66 13.55
 73.15 91.91 92.55 88.24 83.59 13.56
 72.98 91.70 93.69 87.97 83.52 13.57
 72.98 91.70 93.69 87.97 83.52 13.58
 72.81 91.34 94.78 87.78 83.45 13.59
 72.68 91.06 95.20 87.57 83.38 13.60
 72.68 91.06 95.20 87.57 83.38 13.61
 72.55 90.82 95.36 87.33 83.33 13.62
 72.43 90.58 95.42 87.07 83.27 13.63
 72.22 90.35 95.45 86.81 83.21 13.64
 72.22 90.35 95.45 86.81 83.21 13.65
 72.04 90.12 95.47 86.58 83.14 13.66
 71.81 89.90 95.48 86.36 83.09 13.67
 71.59 89.71 95.49 86.12 83.03 13.68
 71.59 89.71 95.49 86.12 83.03 13.69
 71.37 89.55 95.49 85.88 82.98 13.70
 71.09 89.42 95.49 85.63 82.93 13.71
 71.09 89.42 95.49 85.63 82.93 13.72
 70.87 89.29 95.47 85.41 82.88 13.73
 70.70 89.17 95.43 85.21 82.83 13.74
 70.60 89.03 95.37 85.08 82.78 13.75
 70.53 88.91 95.30 84.96 82.73 13.76
 70.53 88.91 95.30 84.96 82.73 13.77
 70.48 88.78 95.21 84.82 82.69 13.78
 70.44 88.65 95.11 84.70 82.65 13.79
 70.44 88.65 95.11 84.70 82.65 13.80
 70.39 88.53 94.99 84.59 82.60 13.81
 70.35 88.41 94.88 84.48 82.56 13.82
 70.35 88.41 94.88 84.48 82.56 13.83
 70.30 88.28 94.77 84.36 82.52 13.84
 70.27 88.17 94.67 84.23 82.47 13.85
 70.27 88.17 94.67 84.23 82.47 13.86
 70.26 88.05 94.56 84.10 82.43 13.87
 70.26 88.05 94.56 84.10 82.43 13.88
 70.23 87.91 94.43 83.95 82.39 13.89
 70.23 87.91 94.43 83.95 82.39 13.90
 70.23 87.91 94.43 83.95 82.39 13.91
 70.22 87.80 94.32 83.80 82.36 13.92
 70.22 87.80 94.32 83.80 82.36 13.93
 70.20 87.66 94.17 83.65 82.33 13.94
 70.20 87.66 94.17 83.65 82.33 13.95
 70.20 87.66 94.17 83.65 82.33 13.96
 70.18 87.48 94.04 83.52 82.31 13.97
 70.18 87.48 94.04 83.52 82.31 13.98
 70.18 87.25 93.87 83.40 82.29 13.99
 70.18 87.25 93.87 83.40 82.29 14.00
 70.18 87.25 93.87 83.40 82.29 14.01
 70.17 86.99 93.73 83.30 82.27 14.02
 70.17 86.99 93.73 83.30 82.27 14.03
 70.17 86.99 93.73 83.30 82.27 14.04
 70.16 86.77 93.64 83.21 82.26 14.05
 70.16 86.77 93.64 83.21 82.26 14.06
 70.16 86.61 93.48 83.15 82.25 14.07
 70.16 86.61 93.48 83.15 82.25 14.08
 70.16 86.61 93.48 83.15 82.25 14.09
 70.16 86.61 93.48 83.15 82.25 14.10
 70.23 86.41 93.36 83.17 82.25 14.11
 70.23 86.41 93.36 83.17 82.25 14.12
 70.64 86.24 93.27 83.50 82.25 14.13
 70.64 86.24 93.27 83.50 82.25 14.14
 70.64 86.24 93.27 83.50 82.25 14.15
 71.18 86.19 92.48 84.08 82.29 14.16
 71.18 86.19 92.48 84.08 82.29 14.17
 71.18 86.19 92.48 84.08 82.29 14.19
 71.93 86.15 91.58 84.87 82.37 14.20
 71.93 86.15 91.58 84.87 82.37 14.21
 72.54 86.10 91.39 85.63 82.53 14.22
 72.54 86.10 91.39 85.63 82.53 14.23
 73.11 86.05 91.41 86.17 82.72 14.24
 73.11 86.05 91.41 86.17 82.72 14.25
 73.59 86.03 91.65 86.68 82.89 14.26
 73.59 86.03 91.65 86.68 82.89 14.27
 74.06 86.06 92.16 87.14 83.01 14.28
 74.06 86.06 92.16 87.14 83.01 14.29
 74.46 86.10 92.75 87.60 83.00 14.30
 74.46 86.10 92.75 87.60 83.00 14.31
 74.82 86.15 93.29 88.02 82.99 14.32
 75.11 86.23 93.83 88.47 83.09 14.33
 75.11 86.23 93.83 88.47 83.09 14.34
 75.39 86.40 94.36 88.90 83.22 14.35
 75.61 86.64 94.87 89.33 83.32 14.36
 75.61 86.64 94.87 89.33 83.32 14.37
 75.80 86.93 95.31 89.68 83.41 14.38
 75.94 87.26 95.75 89.99 83.50 14.39
 75.94 87.26 95.75 89.99 83.50 14.40
 76.04 87.55 96.15 90.19 83.56 14.41
 76.11 87.87 96.48 90.40 83.62 14.42
 76.11 87.87 96.48 90.40 83.62 14.43
 76.16 88.15 96.76 90.63 83.69 14.44
 76.20 88.41 97.04 90.84 83.75 14.45
 76.20 88.41 97.04 90.84 83.75 14.46
 76.23 88.63 97.26 91.01 83.81 14.47
 76.23 88.63 97.26 91.01 83.81 14.48
 76.26 88.84 97.43 91.15 83.89 14.49
 76.27 89.03 97.56 91.26 83.97 14.49
 76.27 89.03 97.56 91.26 83.97 14.50
 76.28 89.20 97.67 91.36 84.06 14.51
 76.28 89.35 97.74 91.45 84.15 14.52
 76.28 89.35 97.74 91.45 84.15 14.53
 76.27 89.48 97.81 91.54 84.25 14.54
 76.27 89.48 97.81 91.54 84.25 14.55
 76.27 89.48 97.81 91.54 84.25 14.56
 76.27 89.48 97.81 91.54 84.25 14.57
 76.27 89.48 97.81 91.54 84.25 14.59
 76.20 89.64 97.91 91.57 84.49 14.60
 76.20 89.64 97.91 91.57 84.49 14.61
 76.14 89.69 97.94 91.58 84.55 14.62
 75.95 89.73 98.03 91.59 84.61 14.63
 75.95 89.73 98.03 91.59 84.61 14.64
 75.70 89.78 98.12 91.62 84.67 14.65
 75.70 89.78 98.12 91.62 84.67 14.66
 75.38 89.85 98.20 91.62 84.72 14.67
 75.38 89.85 98.20 91.62 84.72 14.68
 75.11 89.94 98.32 91.47 84.77 14.69
 75.11 89.94 98.32 91.47 84.77 14.70
 74.78 90.07 98.42 91.09 84.80 14.71
 74.78 90.07 98.42 91.09 84.80 14.72
 74.78 90.07 98.42 91.09 84.80 14.73
 74.23 90.24 98.48 90.14 84.83 14.74
 74.23 90.24 98.48 90.14 84.83 14.75
 74.23 90.24 98.48 90.14 84.83 14.76
 73.65 90.37 98.53 88.97 84.85 14.77
 73.09 90.45 98.54 87.40 84.88 14.78
 73.09 90.45 98.54 87.40 84.88 14.79
 72.58 90.51 98.50 86.80 84.89 14.80
 72.58 90.51 98.50 86.80 84.89 14.81
 72.03 90.53 98.41 86.11 84.88 14.82
 71.56 90.54 98.29 86.20 84.87 14.83
 71.56 90.54 98.29 86.20 84.87 14.84
 71.16 90.53 98.08 86.61 84.83 14.85
 70.85 90.48 97.81 87.07 84.76 14.86
 70.85 90.48 97.81 87.07 84.76 14.87
 70.64 90.40 97.46 87.36 84.64 14.88
 70.64 90.40 97.46 87.36 84.64 14.89
 70.50 90.27 97.05 87.47 84.48 14.90
 70.43 90.10 96.62 87.50 84.30 14.91
 70.43 90.10 96.62 87.50 84.30 14.92
 70.43 90.10 96.62 87.50 84.30 14.94
 70.34 89.64 95.82 87.47 84.00 14.95
 70.34 89.64 95.82 87.47 84.00 14.96
 70.32 89.43 95.43 87.40 83.88 14.97
 70.32 89.43 95.43 87.40 83.88 14.98
 70.32 89.43 95.43 87.40 83.88 14.99
 70.30 89.21 95.06 87.24 83.74 15.00
 70.27 88.95 94.70 86.96 83.60 15.01
 70.26 88.75 94.37 86.62 83.51 15.02
 70.26 88.75 94.37 86.62 83.51 15.03
 70.25 88.61 94.17 86.37 83.45 15.04
 70.25 88.61 94.17 86.37 83.45 15.05
 70.24 88.32 93.68 85.76 83.31 15.06
 70.24 88.32 93.68 85.76 83.31 15.07
 70.24 88.18 93.48 85.47 83.25 15.08
 70.25 88.00 93.26 85.12 83.19 15.09
 70.25 88.00 93.26 85.12 83.19 15.10
 70.26 87.83 93.03 84.70 83.14 15.11
 70.26 87.83 93.03 84.70 83.14 15.12
 70.27 87.69 92.82 84.33 83.09 15.13
 70.27 87.69 92.82 84.33 83.09 15.14
 70.31 87.56 92.63 84.00 83.05 15.15
 70.31 87.56 92.63 84.00 83.05 15.16
 70.34 87.38 92.45 83.73 83.01 15.17
 70.34 87.38 92.45 83.73 83.01 15.18
 70.36 87.22 92.29 83.51 82.97 15.19
 70.36 87.22 92.29 83.51 82.97 15.20
 70.40 87.09 92.10 83.46 82.92 15.22
 70.40 87.09 92.10 83.46 82.92 15.23
 70.44 86.97 91.94 83.32 82.87 15.24
 70.44 86.97 91.94 83.32 82.87 15.25
 70.47 86.82 91.81 83.11 82.84 15.26
 70.47 86.82 91.81 83.11 82.84 15.27
 70.55 86.71 91.70 82.94 82.82 15.28
 70.55 86.71 91.70 82.94 82.82 15.29
 70.55 86.71 91.70 82.94 82.82 15.30
 70.60 86.61 91.60 82.79 82.80 15.31
 70.60 86.61 91.60 82.79 82.80 15.32
 70.64 86.52 91.53 82.64 82.79 15.33
 70.64 86.52 91.53 82.64 82.79 15.34
 70.68 86.40 91.48 82.54 82.79 15.35
 70.68 86.40 91.48 82.54 82.79 15.36
 70.68 86.40 91.48 82.54 82.79 15.37
 70.73 86.30 91.43 82.47 82.79 15.38
 70.73 86.30 91.43 82.47 82.79 15.39
 70.77 86.17 91.42 82.46 82.80 15.40
 70.77 86.17 91.42 82.46 82.80 15.41
 70.77 86.17 91.42 82.46 82.80 15.42
 70.88 86.07 91.40 82.43 82.86 15.43
 70.88 86.07 91.40 82.43 82.86 15.45
 70.88 86.07 91.40 82.43 82.86 15.46
 71.00 85.98 91.40 82.38 82.98 15.47
 71.00 85.98 91.40 82.38 82.98 15.48
 71.16 85.93 91.52 82.27 83.15 15.49
 71.16 85.93 91.52 82.27 83.15 15.50
 71.16 85.93 91.52 82.27 83.15 15.51
 71.36 85.87 91.79 82.25 83.34 15.52
 71.36 85.87 91.79 82.25 83.34 15.53
 71.36 85.87 91.79 82.25 83.34 15.54
 71.64 85.85 92.13 82.24 83.51 15.55
 71.64 85.85 92.13 82.24 83.51 15.56
 71.64 85.85 92.13 82.24 83.51 15.57
 72.04 85.87 92.43 82.67 83.69 15.58
 72.04 85.87 92.43 82.67 83.69 15.59
 72.04 85.87 92.43 82.67 83.69 15.60
 72.46 85.96 92.69 83.44 83.83 15.61
 72.46 85.96 92.69 83.44 83.83 15.62
 72.85 86.14 92.94 84.40 83.94 15.63
 72.85 86.14 92.94 84.40 83.94 15.64
 73.15 86.40 93.20 85.18 84.00 15.65
 73.15 86.40 93.20 85.18 84.00 15.66
 73.46 86.69 93.53 85.78 84.00 15.67
 73.46 86.69 93.53 85.78 84.00 15.68
 73.68 86.99 93.84 86.29 84.00 15.69
 73.68 86.99 93.84 86.29 84.00 15.69
 73.88 87.31 94.17 86.80 83.98 15.70
 74.05 87.58 94.53 87.26 84.01 15.71
 74.05 87.58 94.53 87.26 84.01 15.72
 74.21 87.87 94.89 87.65 84.04 15.73
 74.21 87.87 94.89 87.65 84.04 15.74
 74.36 88.18 95.20 87.99 84.08 15.76
 74.50 88.47 95.48 88.25 84.12 15.77
 74.50 88.47 95.48 88.25 84.12 15.78
 74.60 88.73 95.72 88.52 84.17 15.79
 74.60 88.73 95.72 88.52 84.17 15.80
 74.67 88.94 95.94 88.75 84.23 15.81
 74.74 89.11 96.14 88.96 84.29 15.82
 74.74 89.11 96.14 88.96 84.29 15.83
 74.79 89.26 96.26 89.14 84.36 15.84
 74.79 89.26 96.26 89.14 84.36 15.85
 74.84 89.40 96.39 89.30 84.43 15.86
 74.88 89.52 96.52 89.42 84.46 15.87
 74.94 89.78 96.70 89.61 84.59 15.88
 74.94 89.78 96.70 89.61 84.59 15.89
 74.96 89.91 96.77 89.67 84.65 15.90
 74.96 89.91 96.77 89.67 84.65 15.91
 74.97 90.06 96.84 89.73 84.72 15.92
 74.97 90.20 96.88 89.77 84.80 15.93
 74.97 90.20 96.88 89.77 84.80 15.94
 74.96 90.32 96.91 89.81 84.89 15.95
 74.96 90.32 96.91 89.81 84.89 15.96
 74.96 90.32 96.91 89.81 84.89 15.97
 74.94 90.40 96.95 89.85 84.96 15.98
 74.94 90.40 96.95 89.85 84.96 16.00
 74.93 90.44 96.98 89.89 85.03 16.01
 74.93 90.44 96.98 89.89 85.03 16.02
 74.90 90.47 97.02 89.94 85.07 16.03
 74.90 90.47 97.02 89.94 85.07 16.04
 74.90 90.47 97.02 89.94 85.07 16.05
 74.82 90.49 97.12 90.00 85.06 16.06
 74.82 90.49 97.12 90.00 85.06 16.07
 74.82 90.49 97.12 90.00 85.06 16.08
 74.65 90.50 97.30 90.07 84.69 16.09
 74.65 90.50 97.30 90.07 84.69 16.10
 74.65 90.50 97.30 90.07 84.69 16.11
 74.29 90.49 97.51 90.12 83.54 16.12
 74.29 90.49 97.51 90.12 83.54 16.13
 73.79 90.45 97.73 90.16 82.43 16.14
 73.79 90.45 97.73 90.16 82.43 16.15
 73.34 90.41 97.93 90.18 81.71 16.16
 73.34 90.41 97.93 90.18 81.71 16.17
 73.02 90.36 98.06 90.12 81.17 16.18
 73.02 90.36 98.06 90.12 81.17 16.19
 72.78 90.31 98.13 89.98 80.76 16.20
 72.78 90.31 98.13 89.98 80.76 16.21
 72.59 90.26 98.16 89.74 80.50 16.22
 72.59 90.26 98.16 89.74 80.50 16.23
 72.37 90.20 98.19 89.46 80.24 16.25
 72.37 90.20 98.19 89.46 80.24 16.26
 72.18 90.12 98.20 89.23 79.94 16.27
 72.18 90.12 98.20 89.23 79.94 16.28
 72.00 90.04 98.20 88.97 79.64 16.29
 71.85 89.94 98.19 88.69 79.32 16.30
 71.85 89.94 98.19 88.69 79.32 16.31
 71.85 89.94 98.19 88.69 79.32 16.32
 71.75 89.84 98.15 88.38 78.99 16.33
 71.67 89.74 98.11 88.05 78.67 16.34
 71.67 89.74 98.11 88.05 78.67 16.35
 71.60 89.63 98.07 87.70 78.27 16.36
 71.54 89.54 98.01 87.32 77.86 16.37
 71.54 89.54 98.01 87.32 77.86 16.38
 71.50 89.45 97.96 86.90 77.44 16.39
 71.50 89.45 97.96 86.90 77.44 16.40
 71.48 89.37 97.89 86.53 77.03 16.41
 71.48 89.37 97.89 86.53 77.03 16.42
 71.47 89.30 97.83 86.11 76.60 16.43
 71.47 89.30 97.83 86.11 76.60 16.44
 71.46 89.24 97.78 85.72 76.17 16.45
 71.46 89.17 97.74 85.54 75.72 16.46
 71.46 89.17 97.74 85.54 75.72 16.47
 71.45 89.09 97.70 85.36 75.35 16.48
 71.45 89.09 97.70 85.36 75.35 16.49
 71.45 89.09 97.70 85.36 75.35 16.50
 71.46 89.02 97.64 85.15 74.68 16.51
 71.46 89.02 97.64 85.15 74.68 16.52
 71.47 88.93 97.60 84.91 74.10 16.53
 71.47 88.93 97.60 84.91 74.10 16.54
 71.48 88.86 97.57 84.72 73.50 16.55
 71.48 88.86 97.57 84.72 73.50 16.56
 71.51 88.78 97.52 84.57 72.95 16.57
 71.51 88.78 97.52 84.57 72.95 16.58
 71.53 88.68 97.48 84.36 72.41 16.59
 71.53 88.68 97.48 84.36 72.41 16.60
 71.57 88.61 97.44 84.11 71.99 16.61
 71.57 88.61 97.44 84.11 71.99 16.63
 71.57 88.61 97.44 84.11 71.99 16.63
 71.62 88.55 97.40 83.87 71.59 16.65
 71.62 88.55 97.40 83.87 71.59 16.65
 71.67 88.49 97.36 83.65 71.25 16.66
 71.67 88.49 97.36 83.65 71.25 16.68
 71.73 88.45 97.33 83.50 70.92 16.68
 71.73 88.45 97.33 83.50 70.92 16.70
 71.73 88.45 97.33 83.50 70.92 16.71
 71.77 88.41 97.28 83.36 70.64 16.72
 71.77 88.41 97.28 83.36 70.64 16.73
 71.85 88.37 97.22 83.35 70.38 16.74
 71.85 88.37 97.22 83.35 70.38 16.75
 71.85 88.37 97.22 83.35 70.38 16.75
 72.02 88.33 97.16 83.46 70.18 16.76
 72.02 88.33 97.16 83.46 70.18 16.77
 72.02 88.33 97.16 83.46 70.18 16.78
 72.30 88.28 97.11 84.64 70.08 16.79
 72.30 88.28 97.11 84.64 70.08 16.80
 72.59 88.26 97.10 86.23 69.99 16.81
 72.59 88.26 97.10 86.23 69.99 16.82
 72.88 88.28 97.10 87.46 69.97 16.83
 72.88 88.28 97.10 87.46 69.97 16.84
 72.88 88.28 97.10 87.46 69.97 16.85
 73.28 88.33 97.13 88.10 70.01 16.86
 73.93 88.44 97.20 88.59 70.52 16.87
 73.93 88.44 97.20 88.59 70.52 16.88
 74.45 88.61 97.34 88.95 72.01 16.89
 74.45 88.61 97.34 88.95 72.01 16.90
 74.81 88.86 97.49 89.29 74.07 16.91
 74.81 88.86 97.49 89.29 74.07 16.92
 75.04 89.12 97.63 89.55 75.98 16.93
 75.15 89.39 97.81 89.81 77.40 16.94
 75.15 89.39 97.81 89.81 77.40 16.95
 75.22 89.64 98.01 90.07 78.43 16.96
 75.22 89.64 98.01 90.07 78.43 16.97
 75.29 89.87 98.19 90.31 79.17 16.98
 75.38 90.07 98.35 90.50 79.80 16.99
 75.49 90.25 98.51 90.67 80.32 17.00
 75.49 90.25 98.51 90.67 80.32 17.01
 75.58 90.40 98.64 90.85 80.74 17.02
 75.67 90.56 98.75 91.01 81.06 17.03
 75.67 90.56 98.75 91.01 81.06 17.04
 75.76 90.72 98.87 91.13 81.35 17.05
 75.84 90.88 98.95 91.24 81.62 17.06
 75.84 90.88 98.95 91.24 81.62 17.07
 75.84 90.88 98.95 91.24 81.62 17.08
 75.84 90.88 98.95 91.24 81.62 17.10
 75.84 90.88 98.95 91.24 81.62 17.11
 75.92 91.09 99.05 91.37 81.99 17.12
 75.95 91.16 99.08 91.42 82.08 17.13
 75.95 91.16 99.08 91.42 82.08 17.14
 75.98 91.28 99.15 91.49 82.24 17.15
 75.98 91.28 99.15 91.49 82.24 17.16
 76.01 91.39 99.21 91.57 82.40 17.17
 76.01 91.39 99.21 91.57 82.40 17.18
 76.04 91.49 99.28 91.64 82.54 17.19
 76.04 91.49 99.28 91.64 82.54 17.20
 76.07 91.60 99.34 91.72 82.66 17.21
 76.07 91.60 99.34 91.72 82.66 17.22
 76.09 91.68 99.40 91.80 82.77 17.23
 76.12 91.78 99.46 91.85 82.89 17.24
 76.12 91.78 99.46 91.85 82.89 17.25
 76.12 91.78 99.46 91.85 82.89 17.26
 76.16 91.89 99.51 91.90 82.99 17.27
 76.16 91.89 99.51 91.90 82.99 17.28
 76.16 91.89 99.51 91.90 82.99 17.29
 76.19 92.02 99.54 91.94 83.07 17.30
 76.19 92.02 99.54 91.94 83.07 17.31
 76.13 92.12 99.56 91.96 83.12 17.32
 76.13 92.12 99.56 91.96 83.12 17.33
 76.13 92.12 99.56 91.96 83.12 17.34
 75.65 92.20 99.60 91.97 83.14 17.35
 75.65 92.20 99.60 91.97 83.14 17.37
 75.65 92.20 99.60 91.97 83.14 17.38
 75.65 92.20 99.60 91.97 83.14 17.39
 74.00 92.28 99.64 91.98 83.16 17.40
 74.00 92.28 99.64 91.98 83.16 17.41
 71.82 92.38 99.66 91.99 83.18 17.42
 71.82 92.38 99.66 91.99 83.18 17.43
 71.82 92.38 99.66 91.99 83.18 17.44
 68.71 92.49 99.69 92.00 83.20 17.45
 68.71 92.49 99.69 92.00 83.20 17.46
 67.19 92.55 99.70 92.01 83.21 17.47
 65.93 92.58 99.71 92.01 83.23 17.48
 65.93 92.58 99.71 92.01 83.23 17.49
 64.90 92.60 99.72 92.03 83.24 17.50
 63.58 92.60 99.72 92.03 83.25 17.51
 63.58 92.60 99.72 92.03 83.25 17.52
 62.11 92.61 99.72 92.04 83.26 17.53
 60.19 92.62 99.72 92.05 83.27 17.54
 60.19 92.62 99.72 92.05 83.27 17.55
 58.78 92.63 99.73 92.07 83.31 17.56
 57.95 92.64 99.73 92.09 83.36 17.57
 57.95 92.64 99.73 92.09 83.36 17.58
 57.54 92.63 99.73 92.11 83.43 17.59
 57.54 92.63 99.73 92.11 83.43 17.60
 57.09 92.62 99.74 92.14 83.51 17.61
 56.76 92.60 99.74 92.17 83.60 17.62
 56.76 92.60 99.74 92.17 83.60 17.63
 56.58 92.57 99.74 92.20 83.68 17.64
 56.45 92.53 99.75 92.23 83.77 17.65
 56.45 92.53 99.75 92.23 83.77 17.66
 56.38 92.47 99.75 92.27 83.84 17.67
 56.23 92.41 99.75 92.31 83.90 17.68
 56.10 92.34 99.75 92.35 83.97 17.68
 56.10 92.34 99.75 92.35 83.97 17.69
 55.97 92.26 99.75 92.40 84.04 17.71
 55.90 92.20 99.75 92.43 84.10 17.72
 55.83 92.13 99.75 92.48 84.17 17.72
 55.83 92.13 99.75 92.48 84.17 17.73
 55.77 92.06 99.76 92.53 84.23 17.74
 55.74 92.00 99.76 92.57 84.30 17.75
 55.74 92.00 99.76 92.57 84.30 17.76
 55.67 91.92 99.76 92.61 84.35 17.77
 55.57 91.84 99.76 92.65 84.40 17.78
 55.57 91.84 99.76 92.65 84.40 17.79
 55.50 91.75 99.76 92.70 84.44 17.80
 55.44 91.66 99.76 92.73 84.48 17.81
 55.44 91.66 99.76 92.73 84.48 17.82
 55.44 91.66 99.76 92.73 84.48 17.83
 55.38 91.58 99.76 92.77 84.53 17.84
 55.31 91.51 99.76 92.80 84.56 17.85
 55.31 91.51 99.76 92.80 84.56 17.86
 55.20 91.42 99.77 92.81 84.60 17.87
 55.20 91.42 99.77 92.81 84.60 17.88
 55.09 91.33 99.77 92.83 84.62 17.89
 55.09 91.33 99.77 92.83 84.62 17.90
 55.04 91.24 99.77 92.84 84.64 17.91
 55.04 91.24 99.77 92.84 84.64 17.92
 55.04 91.24 99.77 92.84 84.64 17.93
 55.01 91.20 99.77 92.84 84.65 17.94
 55.01 91.20 99.77 92.84 84.65 17.95
 54.95 91.18 99.77 92.85 84.65 17.96
 54.95 91.18 99.77 92.85 84.65 17.97
 54.90 91.16 99.76 92.85 84.66 17.98
 54.90 91.16 99.76 92.85 84.66 18.00
 54.90 91.16 99.76 92.85 84.66 18.01
 54.86 91.16 99.76 92.85 84.66 18.02
 54.86 91.16 99.76 92.85 84.66 18.03
 54.86 91.16 99.76 92.85 84.66 18.04
 54.93 91.16 99.75 92.85 84.67 18.05
 54.93 91.16 99.75 92.85 84.67 18.06
 54.93 91.16 99.75 92.85 84.67 18.07
 56.79 91.19 99.74 92.85 84.69 18.08
 56.79 91.19 99.74 92.85 84.69 18.09
 60.46 91.27 99.73 92.85 84.73 18.10
 60.46 91.27 99.73 92.85 84.73 18.11
 63.01 91.35 99.72 92.86 84.75 18.12
 65.63 91.47 99.70 92.87 84.77 18.13
 65.63 91.47 99.70 92.87 84.77 18.14
 67.51 91.60 99.69 92.89 84.78 18.15
 68.72 91.72 99.68 92.91 84.80 18.16
 69.74 91.84 99.68 92.94 84.81 18.17
 70.57 91.95 99.68 92.97 84.82 18.18
 70.57 91.95 99.68 92.97 84.82 18.19
 71.33 92.05 99.68 92.99 84.83 18.20
 71.85 92.14 99.68 93.02 84.85 18.21
 72.20 92.21 99.69 93.04 84.87 18.22
 72.20 92.21 99.69 93.04 84.87 18.23
 72.45 92.28 99.69 93.06 84.89 18.24
 72.45 92.28 99.69 93.06 84.89 18.25
 72.58 92.33 99.69 93.08 84.92 18.27
 72.71 92.38 99.69 93.10 84.95 18.28
 72.71 92.38 99.69 93.10 84.95 18.29
 72.79 92.41 99.69 93.11 84.97 18.30
 72.79 92.41 99.69 93.11 84.97 18.31
 72.89 92.44 99.69 93.12 85.00 18.32
 72.99 92.47 99.70 93.14 85.03 18.33
 73.04 92.48 99.70 93.15 85.04 18.34
 73.11 92.49 99.70 93.16 85.05 18.35
 73.16 92.50 99.70 93.17 85.07 18.36
 73.16 92.50 99.70 93.17 85.07 18.37
 73.19 92.50 99.71 93.18 85.08 18.38
 73.22 92.50 99.71 93.18 85.09 18.39
 73.22 92.50 99.71 93.18 85.09 18.40
 73.23 92.51 99.71 93.19 85.09 18.41
 73.25 92.51 99.71 93.20 85.10 18.42
 73.25 92.51 99.71 93.20 85.10 18.43
 73.26 92.51 99.71 93.20 85.11 18.44
 73.26 92.51 99.71 93.20 85.11 18.45
 73.27 92.51 99.71 93.21 85.11 18.46
 73.27 92.51 99.71 93.21 85.11 18.47
 73.26 92.49 99.72 93.21 85.12 18.48
 73.26 92.49 99.72 93.21 85.12 18.49
 73.24 92.45 99.72 93.22 85.12 18.50
 73.24 92.45 99.72 93.22 85.12 18.51
 73.15 92.38 99.73 93.22 85.12 18.52
 73.15 92.38 99.73 93.22 85.12 18.54
 73.15 92.38 99.73 93.22 85.12 18.55
 72.93 92.21 99.76 93.22 85.13 18.56
 72.93 92.21 99.76 93.22 85.13 18.57
 72.39 91.93 99.79 93.23 85.12 18.58
 72.39 91.93 99.79 93.23 85.12 18.59
 72.39 91.93 99.79 93.23 85.12 18.60
 71.75 91.38 99.82 93.25 85.12 18.61
 71.75 91.38 99.82 93.25 85.12 18.62
 71.75 91.38 99.82 93.25 85.12 18.63
 71.02 90.61 99.84 93.26 85.09 18.64
 71.02 90.61 99.84 93.26 85.09 18.65
 70.32 89.48 99.86 93.29 85.06 18.66
 70.32 89.48 99.86 93.29 85.06 18.67
 69.63 88.03 99.86 93.31 85.02 18.68
 69.63 88.03 99.86 93.31 85.02 18.69
 69.03 86.49 99.86 93.33 84.98 18.70
 69.03 86.49 99.86 93.33 84.98 18.71
 69.03 86.49 99.86 93.33 84.98 18.72
 68.49 82.89 99.85 93.34 84.93 18.73
 68.16 80.80 99.83 93.33 84.89 18.74
 67.90 78.92 99.76 93.32 84.84 18.75
 67.90 78.92 99.76 93.32 84.84 18.76
 67.75 78.26 99.61 93.29 84.79 18.78
 67.64 77.44 99.44 93.24 84.74 18.79
 67.59 76.52 99.28 93.15 84.70 18.80
 67.55 75.47 99.05 93.02 84.63 18.81
 67.55 75.47 99.05 93.02 84.63 18.82
 67.53 74.69 98.76 92.83 84.56 18.83
 67.53 73.65 98.45 92.62 84.46 18.84
 67.53 73.65 98.45 92.62 84.46 18.85
 67.53 72.83 98.09 92.41 84.36 18.86
 67.56 72.00 97.77 92.20 84.22 18.87
 67.60 71.24 97.47 92.02 84.04 18.88
 67.67 70.47 97.21 91.90 83.87 18.89
 67.67 70.47 97.21 91.90 83.87 18.90
 67.76 69.91 96.97 91.79 83.71 18.91
 67.87 69.32 96.79 91.72 83.57 18.92
 67.87 69.32 96.79 91.72 83.57 18.93
 68.01 68.84 96.64 91.64 83.43 18.94
 68.17 68.17 96.52 91.59 83.31 18.95
 68.37 67.40 96.41 91.54 83.20 18.96
 68.37 67.40 96.41 91.54 83.20 18.97
 68.58 66.68 96.31 91.50 83.10 18.98
 68.77 65.89 96.24 91.43 82.95 18.99
 68.96 65.03 96.17 91.36 82.83 19.00
 68.96 65.03 96.17 91.36 82.83 19.01
 69.15 64.05 96.10 91.29 82.68 19.02
 69.31 63.17 96.04 91.22 82.56 19.03
 69.31 63.17 96.04 91.22 82.56 19.04
 69.51 62.38 96.00 91.16 82.45 19.05
 69.51 62.38 96.00 91.16 82.45 19.06
 69.51 62.38 96.00 91.16 82.45 19.07
 69.66 61.59 95.94 91.09 82.36 19.08
 69.79 60.86 95.86 91.03 82.24 19.09
 69.79 60.86 95.86 91.03 82.24 19.10
 69.79 60.86 95.86 91.03 82.24 19.11
 69.95 60.04 95.79 90.97 82.17 19.12
 70.09 59.38 95.72 90.91 82.12 19.13
 70.09 59.38 95.72 90.91 82.12 19.14
 70.09 59.38 95.72 90.91 82.12 19.15
 70.25 58.86 95.63 90.82 82.06 19.16
 70.25 58.86 95.63 90.82 82.06 19.17
 70.43 58.46 95.56 90.74 81.99 19.18
 70.43 58.46 95.56 90.74 81.99 19.20
 70.68 58.15 95.51 90.70 81.96 19.21
 70.68 58.15 95.51 90.70 81.96 19.22
 70.94 57.88 95.47 90.66 81.94 19.23
 70.94 57.88 95.47 90.66 81.94 19.24
 71.41 57.64 95.47 90.64 81.95 19.25
 71.41 57.64 95.47 90.64 81.95 19.26
 71.41 57.64 95.47 90.64 81.95 19.27
 71.41 57.64 95.47 90.64 81.95 19.28
 71.41 57.64 95.47 90.64 81.95 19.29
 72.40 57.27 95.57 90.63 82.04 19.30
 72.40 57.27 95.57 90.63 82.04 19.32
 73.03 57.24 95.68 90.61 82.11 19.33
 73.03 57.24 95.68 90.61 82.11 19.34
 73.03 57.24 95.68 90.61 82.11 19.35
 74.27 59.79 95.77 90.50 82.28 19.36
 74.27 59.79 95.77 90.50 82.28 19.37
 74.27 59.79 95.77 90.50 82.28 19.38
 75.81 63.89 95.86 90.18 82.49 19.39
 75.81 63.89 95.86 90.18 82.49 19.40
 75.81 63.89 95.86 90.18 82.49 19.41
 75.81 63.89 95.86 90.18 82.49 19.42
 75.81 63.89 95.86 90.18 82.49 19.43
 77.99 67.38 95.92 89.82 82.68 19.44
 76.92 76.38 96.64 90.26 82.83 19.45
 75.80 87.80 98.33 91.18 83.11 19.46
 75.35 90.98 99.23 91.70 83.29 19.47
 75.35 90.98 99.23 91.70 83.29 19.48
 75.23 92.20 99.61 91.91 83.39 19.49
 75.20 92.71 99.76 92.00 83.44 19.50
 75.17 93.01 99.85 92.07 83.48 19.51
 75.16 93.21 99.92 92.12 83.52 19.52
 75.16 93.36 99.99 92.16 83.55 19.53
 75.16 93.45 100.04 92.22 83.58 19.54
 75.16 93.52 100.10 92.27 83.62 19.55
 75.16 93.52 100.10 92.27 83.62 19.56
 75.16 93.58 100.14 92.32 83.65 19.57
 75.16 93.63 100.16 92.36 83.67 19.58
 75.16 93.66 100.19 92.41 83.69 19.59
 75.15 93.69 100.22 92.44 83.72 19.60
 75.15 93.69 100.22 92.44 83.72 19.61
 75.15 93.69 100.22 92.44 83.72 19.62
 75.14 93.72 100.24 92.47 83.74 19.63
 75.12 93.74 100.27 92.49 83.76 19.64
 75.10 93.76 100.29 92.51 83.78 19.65
 75.09 93.77 100.31 92.53 83.80 19.66
 75.07 93.78 100.32 92.55 83.81 19.67
 75.05 93.79 100.33 92.58 83.83 19.68
 75.01 93.80 100.33 92.60 83.84 19.69
 74.94 93.80 100.30 92.62 83.86 19.70
 74.83 93.78 100.25 92.64 83.87 19.71
 74.68 93.74 100.16 92.66 83.88 19.72
 74.68 93.74 100.16 92.66 83.88 19.73
 74.47 93.69 100.01 92.68 83.89 19.74
 74.23 93.64 99.76 92.67 83.90 19.76
 74.23 93.64 99.76 92.67 83.90 19.76
 73.85 93.63 99.24 92.67 83.89 19.77
 73.85 93.63 99.24 92.67 83.89 19.79
 72.97 93.63 98.14 92.67 83.78 19.80
 72.97 93.63 98.14 92.67 83.78 19.81
 72.97 93.63 98.14 92.67 83.78 19.82
 72.03 93.65 96.76 92.63 83.58 19.83
 72.03 93.65 96.76 92.63 83.58 19.84
 72.03 93.65 96.76 92.63 83.58 19.85
 70.77 93.67 95.44 92.36 83.33 19.86
 69.68 93.71 94.12 91.84 83.16 19.87
 68.79 93.72 93.93 91.06 83.00 19.88
 68.79 93.72 93.93 91.06 83.00 19.89
 67.93 93.71 93.89 90.22 82.81 19.90
 67.93 93.71 93.89 90.22 82.81 19.91
 67.09 93.67 93.86 89.27 82.58 19.92
 67.09 93.67 93.86 89.27 82.58 19.93
 66.77 93.61 93.88 89.00 82.46 19.94
 66.77 93.61 93.88 89.00 82.46 19.95
 66.44 93.42 94.36 88.68 82.26 19.96
 66.14 93.15 95.60 88.38 82.06 19.97
 65.92 92.81 97.10 88.10 81.86 19.97
 65.92 92.81 97.10 88.10 81.86 19.98
 65.76 92.56 97.57 87.79 81.67 19.99
 65.65 92.36 97.69 87.53 81.49 20.00
 65.61 92.18 97.73 87.23 81.33 20.01
 65.57 92.00 97.74 86.97 81.19 20.02
 65.57 92.00 97.74 86.97 81.19 20.03
 65.55 91.80 97.75 86.72 81.07 20.04
 65.47 91.60 97.74 86.46 80.96 20.05
 65.45 91.48 97.72 86.29 80.88 20.06
 65.45 91.48 97.72 86.29 80.88 20.07
 65.41 91.32 97.68 86.04 80.79 20.08
 65.34 91.02 97.59 85.49 80.59 20.09
 65.33 90.90 97.55 85.22 80.51 20.10
 65.34 90.78 97.52 84.93 80.43 20.11
 65.38 90.65 97.49 84.67 80.37 20.12
 65.38 90.65 97.49 84.67 80.37 20.13
 65.42 90.51 97.47 84.45 80.33 20.14
 65.46 90.36 97.45 84.26 80.30 20.15
 65.50 90.23 97.44 84.07 80.27 20.16
 65.50 90.23 97.44 84.07 80.27 20.17
 65.54 90.13 97.42 83.87 80.24 20.18
 65.59 90.02 97.41 83.70 80.22 20.20
 65.64 89.93 97.40 83.57 80.20 20.21
 65.67 89.92 97.39 83.32 80.18 20.22
 65.67 89.92 97.39 83.32 80.18 20.23
 65.69 89.91 97.38 83.03 80.18 20.24
 65.69 89.91 97.38 83.03 80.18 20.25
 65.71 89.90 97.37 82.61 80.18 20.26
 65.71 89.90 97.37 82.61 80.18 20.27
 65.73 89.92 97.36 82.19 80.18 20.28
 65.73 89.92 97.36 82.19 80.18 20.29
 65.75 89.94 97.35 81.84 80.18 20.30
 65.75 89.94 97.35 81.84 80.18 20.31
 65.79 89.97 97.35 81.53 80.18 20.32
 65.79 89.97 97.35 81.53 80.18 20.33
 65.79 89.97 97.35 81.53 80.18 20.34
 65.86 89.97 97.34 81.44 80.19 20.36
 65.86 89.97 97.34 81.44 80.19 20.37
 65.96 89.90 97.33 81.44 80.20 20.38
 65.96 89.90 97.33 81.44 80.20 20.39
 65.96 89.90 97.33 81.44 80.20 20.40
 66.15 89.75 97.19 81.56 80.21 20.41
 66.15 89.75 97.19 81.56 80.21 20.42
 66.56 89.52 97.00 82.13 80.23 20.43
 66.56 89.52 97.00 82.13 80.23 20.44
 66.56 89.52 97.00 82.13 80.23 20.45
 67.40 89.24 96.88 83.32 80.27 20.46
 67.40 89.24 96.88 83.32 80.27 20.47
 68.36 89.18 96.41 84.21 80.37 20.48
 68.36 89.18 96.41 84.21 80.37 20.49
 68.36 89.18 96.41 84.21 80.37 20.50
 69.08 89.24 94.86 86.57 80.60 20.51
 69.08 89.24 94.86 86.57 80.60 20.52
 69.56 89.30 94.68 88.15 80.81 20.53
 69.56 89.30 94.68 88.15 80.81 20.54
 69.91 89.32 94.69 88.83 81.30 20.55
 70.32 89.36 94.82 89.43 81.82 20.56
 70.32 89.36 94.82 89.43 81.82 20.57
 70.71 89.38 95.11 89.97 82.23 20.58
 71.04 89.41 95.50 90.36 82.54 20.59
 71.04 89.41 95.50 90.36 82.54 20.60
 71.32 89.43 95.93 90.67 82.76 20.61
 71.57 89.45 96.37 91.03 82.94 20.62
 71.57 89.45 96.37 91.03 82.94 20.63
 71.77 89.47 96.76 91.32 83.09 20.64
 71.91 89.50 97.15 91.59 83.21 20.65
 71.91 89.50 97.15 91.59 83.21 20.66
 72.03 89.54 97.56 91.85 83.34 20.68
 72.12 89.60 97.85 92.09 83.45 20.69
 72.12 89.60 97.85 92.09 83.45 20.70
 72.18 89.68 98.06 92.27 83.59 20.71
 72.18 89.68 98.06 92.27 83.59 20.72
 72.25 89.79 98.24 92.43 83.71 20.73
 72.25 89.79 98.24 92.43 83.71 20.74
 72.31 89.90 98.38 92.54 83.80 20.75
 72.31 89.90 98.38 92.54 83.80 20.76
 72.37 90.03 98.51 92.63 83.87 20.77
 72.42 90.19 98.68 92.72 83.93 20.78
 72.42 90.19 98.68 92.72 83.93 20.79
 72.44 90.27 98.76 92.76 83.96 20.80
 72.47 90.36 98.85 92.81 84.01 20.81
 72.47 90.36 98.85 92.81 84.01 20.82
 72.50 90.46 98.95 92.84 84.07 20.83
 72.50 90.46 98.95 92.84 84.07 20.84
 72.52 90.55 99.01 92.85 84.15 20.85
 72.54 90.64 99.08 92.87 84.22 20.86
 72.54 90.64 99.08 92.87 84.22 20.87
 72.54 90.71 99.15 92.90 84.31 20.88
 72.54 90.71 99.15 92.90 84.31 20.89
 72.51 90.77 99.22 92.91 84.38 20.90
 72.51 90.77 99.22 92.91 84.38 20.91
 72.35 90.84 99.29 92.86 84.43 20.92
 72.35 90.84 99.29 92.86 84.43 20.93
 72.03 90.95 99.38 92.62 84.49 20.94
 72.03 90.95 99.38 92.62 84.49 20.95
 72.03 90.95 99.38 92.62 84.49 20.96
 71.54 91.14 99.47 91.86 84.52 20.97
 71.54 91.14 99.47 91.86 84.52 20.98
 71.09 91.32 99.51 90.60 84.53 20.99
 71.09 91.32 99.51 90.60 84.53 21.00
 70.60 91.45 99.52 89.73 84.52 21.01
 70.60 91.45 99.52 89.73 84.52 21.02
 70.19 91.52 99.49 88.70 84.48 21.03
 69.60 91.56 99.44 86.63 84.45 21.04
 69.60 91.56 99.44 86.63 84.45 21.05
 69.19 91.57 99.20 86.58 84.37 21.06
 69.19 91.57 99.20 86.58 84.37 21.07
 68.85 91.56 98.83 87.04 84.23 21.08
 68.63 91.54 98.44 87.63 83.88 21.09
 68.63 91.54 98.44 87.63 83.88 21.10
 68.46 91.47 97.98 88.04 83.36 21.10
 68.31 91.38 97.52 88.23 82.93 21.11
 68.31 91.38 97.52 88.23 82.93 21.12
 68.20 91.26 97.03 88.30 82.58 21.13
 68.10 91.11 96.64 88.31 82.31 21.14
 68.10 91.11 96.64 88.31 82.31 21.15
 68.05 90.95 96.29 88.29 82.05 21.16
 68.01 90.75 96.01 88.20 81.79 21.17
 67.99 90.52 95.76 88.05 81.54 21.18
 67.99 90.52 95.76 88.05 81.54 21.19
 67.97 90.28 95.56 87.84 81.30 21.20
 67.96 90.05 95.35 87.68 81.10 21.21
 67.96 89.81 95.13 87.53 80.91 21.22
 67.96 89.81 95.13 87.53 80.91 21.23
 67.96 89.57 94.90 87.37 80.75 21.24
 67.98 89.39 94.68 87.17 80.60 21.25
 67.99 89.21 94.49 86.94 80.45 21.27
 67.99 89.21 94.49 86.94 80.45 21.28
 68.02 89.05 94.30 86.71 80.31 21.29
 68.02 89.05 94.30 86.71 80.31 21.30
 68.06 88.91 94.11 86.54 80.15 21.31
 68.13 88.77 93.96 86.31 80.01 21.32
 68.13 88.77 93.96 86.31 80.01 21.33
 68.22 88.64 93.83 86.06 79.87 21.34
 68.22 88.64 93.83 86.06 79.87 21.35
 68.32 88.49 93.70 85.81 79.76 21.36
 68.32 88.49 93.70 85.81 79.76 21.37
 68.32 88.49 93.70 85.81 79.76 21.38
 68.32 88.49 93.70 85.81 79.76 21.39
 68.32 88.49 93.70 85.81 79.76 21.40
 68.32 88.49 93.70 85.81 79.76 21.41
 68.56 88.32 93.54 85.47 79.59 21.42
 68.56 88.32 93.54 85.47 79.59 21.43
 68.65 88.27 93.50 85.38 79.53 21.44
 68.65 88.27 93.50 85.38 79.53 21.45
 68.78 88.18 93.43 85.24 79.42 21.46
 68.78 88.18 93.43 85.24 79.42 21.47
 68.91 88.10 93.35 85.19 79.28 21.48
 68.91 88.10 93.35 85.19 79.28 21.49
 68.91 88.10 93.35 85.19 79.28 21.50
 69.04 88.03 93.30 85.16 79.18 21.52
 69.04 88.03 93.30 85.16 79.18 21.53
 69.21 87.96 93.29 85.15 79.12 21.54
 69.21 87.96 93.29 85.15 79.12 21.55
 69.21 87.96 93.29 85.15 79.12 21.56
 69.50 87.88 93.31 85.13 79.12 21.57
 69.50 87.88 93.31 85.13 79.12 21.58
 69.50 87.88 93.31 85.13 79.12 21.59
 69.94 87.84 93.44 85.14 79.26 21.60
 69.94 87.84 93.44 85.14 79.26 21.61
 69.94 87.84 93.44 85.14 79.26 21.62
 70.47 87.83 93.71 85.29 79.54 21.63
 70.47 87.83 93.71 85.29 79.54 21.64
 70.90 87.86 94.24 85.21 79.90 21.65
 70.90 87.86 94.24 85.21 79.90 21.66
 71.49 87.97 94.77 85.17 80.20 21.68
 71.49 87.97 94.77 85.17 80.20 21.69
 71.49 87.97 94.77 85.17 80.20 21.70
 72.34 88.12 95.05 85.28 80.41 21.71
 72.34 88.12 95.05 85.28 80.41 21.72
 73.32 88.29 95.25 85.75 80.63 21.73
 73.32 88.29 95.25 85.75 80.63 21.74
 74.10 88.44 95.40 86.45 80.86 21.75
 74.10 88.44 95.40 86.45 80.86 21.76
 74.63 88.55 95.52 87.22 81.05 21.77
 74.63 88.55 95.52 87.22 81.05 21.78
 75.09 88.65 95.67 87.86 81.20 21.79
 75.09 88.65 95.67 87.86 81.20 21.80
 75.48 88.73 95.93 88.37 81.41 21.81
 75.48 88.73 95.93 88.37 81.41 21.82
 75.76 88.80 96.23 88.81 81.60 21.83
 75.98 88.89 96.52 89.19 81.79 21.84
 76.14 89.00 96.80 89.55 82.02 21.85
 76.14 89.00 96.80 89.55 82.02 21.86
 76.26 89.15 97.07 89.87 82.27 21.87
 76.26 89.15 97.07 89.87 82.27 21.88
 76.37 89.30 97.31 90.18 82.49 21.89
 76.45 89.44 97.57 90.44 82.69 21.90
 76.45 89.44 97.57 90.44 82.69 21.91
 76.53 89.59 97.81 90.68 82.86 21.92
 76.53 89.59 97.81 90.68 82.86 21.93
 76.61 89.76 98.04 90.88 83.02 21.94
 76.67 89.93 98.24 91.02 83.15 21.95
 76.67 89.93 98.24 91.02 83.15 21.96
 76.72 90.08 98.42 91.19 83.28 21.97
 76.72 90.08 98.42 91.19 83.28 21.98
 76.77 90.24 98.59 91.33 83.39 22.00
 76.77 90.24 98.59 91.33 83.39 22.01
 76.81 90.40 98.72 91.45 83.50 22.01
 76.85 90.56 98.85 91.59 83.61 22.02
 76.85 90.56 98.85 91.59 83.61 22.03
 76.85 90.56 98.85 91.59 83.61 22.04
 76.85 90.56 98.85 91.59 83.61 22.05
 76.87 90.72 98.96 91.71 83.74 22.06
 76.89 90.86 99.07 91.81 83.85 22.07
 76.89 90.96 99.17 91.91 83.95 22.08
 76.89 90.96 99.17 91.91 83.95 22.09
 76.87 91.04 99.28 92.01 84.03 22.10
 76.87 91.04 99.28 92.01 84.03 22.11
 76.87 91.04 99.28 92.01 84.03 22.12
 76.84 91.13 99.37 92.11 84.12 22.13
 76.84 91.13 99.37 92.11 84.12 22.14
 76.81 91.21 99.46 92.21 84.19 22.15
 76.81 91.21 99.46 92.21 84.19 22.16
 76.81 91.21 99.46 92.21 84.19 22.17
 76.76 91.27 99.54 92.31 84.25 22.18
 76.76 91.27 99.54 92.31 84.25 22.19
 76.70 91.31 99.64 92.41 84.29 22.20
 76.70 91.31 99.64 92.41 84.29 22.21
 76.70 91.31 99.64 92.41 84.29 22.22
 76.62 91.34 99.77 92.45 84.31 22.23
 76.62 91.34 99.77 92.45 84.31 22.24
 76.62 91.34 99.77 92.45 84.31 22.25
 76.43 91.37 99.93 92.46 84.22 22.26
 76.43 91.37 99.93 92.46 84.22 22.27
 76.01 91.40 100.08 92.48 83.86 22.28
 76.01 91.40 100.08 92.48 83.86 22.29
 76.01 91.40 100.08 92.48 83.86 22.30
 75.49 91.42 100.22 92.48 83.49 22.31
 75.49 91.42 100.22 92.48 83.49 22.32
 75.15 91.42 100.31 92.36 83.17 22.33
 75.15 91.42 100.31 92.36 83.17 22.34
 75.15 91.42 100.31 92.36 83.17 22.35
 74.89 91.41 100.37 92.13 82.72 22.36
 74.89 91.41 100.37 92.13 82.72 22.37
 74.63 91.40 100.40 91.86 82.24 22.38
 74.63 91.40 100.40 91.86 82.24 22.39
 74.33 91.37 100.42 91.53 81.78 22.40
 74.33 91.37 100.42 91.53 81.78 22.41
 74.10 91.31 100.42 91.21 81.19 22.42
 74.10 91.31 100.42 91.21 81.19 22.43
 73.89 91.20 100.40 90.97 80.75 22.44
 73.89 91.20 100.40 90.97 80.75 22.45
 73.70 91.06 100.37 90.71 80.34 22.46
 73.70 91.06 100.37 90.71 80.34 22.47
 73.70 91.06 100.37 90.71 80.34 22.48
 73.55 90.93 100.29 90.45 79.79 22.49
 73.44 90.77 100.18 90.20 79.13 22.50
 73.44 90.77 100.18 90.20 79.13 22.51
 73.38 90.67 100.13 89.98 78.74 22.52
 73.30 90.51 100.03 89.67 78.25 22.53
 73.30 90.51 100.03 89.67 78.25 22.55
 73.23 90.38 99.97 89.37 77.81 22.56
 73.23 90.38 99.97 89.37 77.81 22.57
 73.19 90.27 99.94 89.05 77.33 22.58
 73.19 90.27 99.94 89.05 77.33 22.59
 73.15 90.14 99.88 88.91 76.61 22.60
 73.13 89.98 99.83 88.80 75.96 22.61
 73.13 89.98 99.83 88.80 75.96 22.62
 73.13 89.85 99.78 88.68 75.54 22.63
 73.13 89.85 99.78 88.68 75.54 22.64
 73.13 89.73 99.72 88.53 75.12 22.65
 73.13 89.73 99.72 88.53 75.12 22.66
 73.14 89.62 99.65 88.37 74.67 22.67
 73.14 89.62 99.65 88.37 74.67 22.68
 73.14 89.62 99.65 88.37 74.67 22.69
 73.14 89.50 99.58 88.22 74.14 22.70
 73.14 89.50 99.58 88.22 74.14 22.71
 73.14 89.50 99.58 88.22 74.14 22.72
 73.14 89.50 99.58 88.22 74.14 22.73
 73.14 89.50 99.58 88.22 74.14 22.74
 73.16 89.36 99.51 87.98 73.46 22.75
 73.16 89.35 99.51 87.97 73.43 22.77
 73.18 89.18 99.40 87.68 72.69 22.78
 73.17 89.16 99.40 87.67 71.78 22.79
 73.17 89.16 99.40 87.67 71.78 22.80
 73.17 89.16 99.40 87.67 71.78 22.81
 73.18 89.10 99.38 87.62 71.27 22.82
 73.20 89.06 99.37 87.50 70.94 22.83
 73.20 89.06 99.37 87.50 70.94 22.84
 73.20 89.06 99.37 87.50 70.94 22.85
 73.21 89.01 99.36 87.40 70.52 22.86
 73.21 89.01 99.36 87.40 70.52 22.87
 73.23 88.91 99.34 87.28 70.37 22.88
 73.23 88.91 99.34 87.28 70.37 22.89
 73.26 88.79 99.30 87.12 70.08 22.90
 73.26 88.79 99.30 87.12 70.08 22.91
 73.28 88.68 99.26 87.00 69.65 22.92
 73.28 88.68 99.26 87.00 69.65 22.93
 73.28 88.68 99.26 87.00 69.65 22.94
 73.33 88.54 99.17 86.81 69.52 22.95
 73.38 88.44 99.09 86.68 69.33 22.96
 73.38 88.44 99.09 86.68 69.33 22.97
 73.43 88.33 99.00 86.59 68.66 22.98
 73.43 88.33 99.00 86.59 68.66 22.99
 73.43 88.33 99.00 86.59 68.66 23.00
 73.46 88.27 98.95 86.55 67.13 23.01
 73.46 88.27 98.95 86.55 67.13 23.02
 73.61 88.16 98.89 86.73 65.94 23.03
 73.61 88.16 98.89 86.73 65.94 23.04
 73.95 87.98 98.79 87.30 65.64 23.05
 73.95 87.98 98.79 87.30 65.64 23.06
 74.37 87.75 98.68 87.90 65.68 23.07
 74.37 87.75 98.68 87.90 65.68 23.08
 75.07 87.45 98.59 88.25 66.04 23.09
 75.07 87.45 98.59 88.25 66.04 23.10
 75.88 87.10 98.52 88.40 67.15 23.11
 75.88 87.10 98.52 88.40 67.15 23.12
 76.43 86.81 98.46 88.57 68.83 23.13
 76.43 86.81 98.46 88.57 68.83 23.14
 76.73 86.61 98.42 88.73 71.94 23.15
 76.73 86.61 98.42 88.73 71.94 23.16
 76.76 86.56 98.41 88.86 73.99 23.17
 76.76 86.56 98.41 88.86 73.99 23.18
 76.85 86.53 98.41 89.07 75.68 23.19
 76.85 86.53 98.41 89.07 75.68 23.20
 76.96 86.53 98.42 89.25 76.71 23.21
 76.96 86.53 98.42 89.25 76.71 23.22
 77.10 86.54 98.46 89.45 77.44 23.23
 77.24 86.58 98.51 89.60 77.98 23.24
 77.33 86.63 98.54 89.71 78.38 23.25
 77.33 86.63 98.54 89.71 78.38 23.26
 77.46 86.71 98.60 89.79 78.78 23.26
 77.51 86.78 98.64 89.87 79.04 23.27
 77.51 86.78 98.64 89.87 79.04 23.28
 77.51 86.78 98.64 89.87 79.04 23.29
 77.57 86.90 98.72 90.01 79.42 23.30
 77.59 86.94 98.75 90.05 79.58 23.31
 77.59 86.94 98.75 90.05 79.58 23.32
 77.59 86.94 98.75 90.05 79.58 23.33
 77.60 87.09 98.81 90.19 80.04 23.34
 77.60 87.09 98.81 90.19 80.04 23.35
 77.60 87.18 98.83 90.26 80.30 23.36
 77.59 87.30 98.87 90.34 80.53 23.37
 77.59 87.30 98.87 90.34 80.53 23.38
 77.56 87.48 98.91 90.44 80.78 23.39
 77.56 87.48 98.91 90.44 80.78 23.40
 77.51 87.63 98.94 90.57 80.99 23.41
 77.51 87.63 98.94 90.57 80.99 23.42
 77.30 87.80 98.96 90.65 81.14 23.43
 76.78 88.01 98.97 90.72 81.30 23.44
 76.78 88.01 98.97 90.72 81.30 23.45
 76.15 88.23 98.96 90.76 81.41 23.46
 75.67 88.52 98.95 90.78 81.49 23.47
 75.67 88.52 98.95 90.78 81.49 23.48
 75.20 88.84 98.95 90.82 81.57 23.49
 75.20 88.84 98.95 90.82 81.57 23.50
 75.20 88.84 98.95 90.82 81.57 23.51
 74.70 89.35 98.93 90.86 81.66 23.52
 74.70 89.35 98.93 90.86 81.66 23.53
 74.70 89.35 98.93 90.86 81.66 23.54
 74.44 89.72 98.91 90.90 81.57 23.55
 74.37 89.83 98.90 90.91 81.47 23.56
 74.37 89.83 98.90 90.91 81.47 23.57
 72.73 89.94 98.90 90.93 81.25 23.58
 72.73 89.94 98.90 90.93 81.25 23.59
 71.41 90.29 98.85 90.97 80.30 23.60
 71.41 90.29 98.85 90.97 80.30 23.61
 71.26 90.42 98.85 90.99 79.96 23.62
 71.16 90.67 98.83 91.05 79.69 23.63
 71.09 90.88 98.50 91.09 79.41 23.64
 71.04 91.02 98.32 91.13 79.04 23.65
 71.09 91.06 98.18 91.30 78.58 23.66
 71.09 91.06 98.18 91.30 78.58 23.67
 71.11 91.08 98.16 91.37 78.14 23.68
 71.11 91.08 98.16 91.37 78.14 23.70
 23.71
 23.72
 23.73
 23.74
 23.75
 23.76
 23.77
 23.78
 23.79
 23.80
 23.81
 23.82
 23.83
 23.84
 23.85
 23.86
 23.87
 23.88
 23.89
 23.90
 23.91
 23.92
 23.93
 23.94
 23.95
 23.96
 23.97
 23.98
 23.99
 24.00
 24.01
 24.02
 24.03
 24.04
 24.05
 24.07
 24.08
 24.09
 24.10
 24.11
 24.12
 24.13
 24.14
 24.15
 24.16
 24.17
 24.18
 24.19
 24.21
 24.22
 24.23
 24.24
 24.25
 24.26
 24.27
 24.28
 24.29
 24.30
 24.31
 24.32
 24.33
 24.34
 24.35
 24.36
 24.37
 24.38
 24.39
 24.40
 24.41
 24.43
 24.44
 24.45
 24.46
 24.47
 24.48
 24.49
 24.50
 24.51
 24.52
 24.53
 24.54
 24.55
 24.56
 24.57
 24.58
 24.59
 24.60
 24.61
 24.62
 24.63
 24.64
 24.65
 24.66
 24.67
 24.67
 24.68
 24.69
 24.70
 24.71
 24.72
 24.73
 24.74
 24.75
 24.76
 24.77
 24.78
 24.79
 24.80
 24.81
 24.82
 24.83
 24.84
 24.85
 24.86
 24.87
 24.88
 24.89
 24.90
 24.91
 24.92
 24.94
 24.95
 24.96
 24.97
 24.98
 24.99
 25.00
 25.01
 25.02
 25.03
 25.04
 25.05
 25.06
 25.07
 25.08
 25.09
 25.10
 25.11
 25.12
 25.13
 25.14
 25.15
 25.16
 25.17
 25.18
 25.20
 25.21
 25.22
 25.23
 25.24
 25.25
 25.26
 25.27
 25.28
 25.29
 25.30
 25.31
 25.32
 25.33
 25.34
 25.35
 25.36
 25.37
 25.38
 25.39
 25.40
 25.41
 25.42
 25.43
 25.44
 25.45
 25.46
 25.47
 25.48
 25.49
 25.50
 25.51
 25.52
 25.53
 25.54
 25.55
 25.56
 25.57
 25.58
 25.59
 25.60
 25.61
 25.62
 25.63
 25.64
 25.65
 25.66
 25.67
 25.68
 25.69
 25.70
 25.71
 25.72
 25.73
 25.74
 25.75
 25.76
 25.77
 25.78
 25.78
 25.79
 25.80
 25.81
 25.82
 25.83
 25.84
 25.85
 25.86
 25.87
 25.88
 25.89
 25.90
 25.91
 25.92
 25.93
 25.94
 25.95
 25.96
 25.97
 25.98
 25.99
 26.00
 26.01
 26.02
 26.03
 26.04
 26.05
 26.06
 26.07
 26.08
 26.09
 26.11
 26.12
 26.13
 26.14
 26.15
 26.16
 26.17
 26.18
 26.19
 26.20
 26.21
 26.22
 26.23
 26.24
 26.25
 26.26
 26.27
 26.28
 26.29
 26.30
 26.31
 26.32
 26.33
 26.34
 26.35
 26.36
 26.37
 26.38
 26.39
 26.40
 26.42
 26.43
 26.44
 26.45
 26.46
 26.47
 26.48
 26.49
 26.50
 26.51
 26.52
 26.53
 26.54
 26.55
 26.56
 26.57
 26.58
 26.59
 26.60
 26.62
 26.63
 26.64
 26.65
 26.66
 26.67
 26.68
 26.69
 26.70
 26.71
 26.72
 26.73
 26.74
 26.75
 26.76
 26.77
 26.78
 26.79
 26.80
 26.81
 26.82
 26.83
 26.84
 26.85
 26.86
 26.87
 26.88
 26.89
 26.90
 26.91
 26.92
 26.93
 26.94
 26.95
 26.96
 26.97
 26.98
 26.99
 27.00
 27.01
 27.02
 27.03
 27.04
 27.05
 27.06
 27.07
 27.08
 27.08
 27.09
 27.10
 27.12
 27.13
 27.14
 27.15
 27.16
 27.17
 27.18
 27.19
 27.20
 27.21
 75.19 89.63 94.36 88.61 78.97 27.22
 75.22 89.55 94.32 88.55 78.93 27.23
 75.20 89.36 94.28 88.50 78.83 27.24
 75.20 89.36 94.28 88.50 78.83 27.25
 74.90 89.13 94.21 88.44 78.73 27.26
 74.50 88.96 94.18 88.36 78.63 27.27
 74.50 88.96 94.18 88.36 78.63 27.28
 73.58 88.80 94.16 88.23 78.53 27.29
 73.58 88.80 94.16 88.23 78.53 27.30
 72.55 88.75 94.12 88.13 78.44 27.31
 72.55 88.75 94.12 88.13 78.44 27.32
 71.63 88.71 94.09 88.02 78.33 27.33
 71.63 88.71 94.09 88.02 78.33 27.34
 70.86 88.69 94.06 87.90 78.22 27.35
 70.37 88.66 94.02 87.78 78.14 27.36
 70.37 88.66 94.02 87.78 78.14 27.37
 70.37 88.66 94.02 87.78 78.14 27.38
 69.96 88.62 93.97 87.65 78.07 27.39
 69.86 88.61 93.95 87.61 78.06 27.40
 69.80 88.60 93.91 87.56 78.05 27.41
 69.76 88.58 93.87 87.51 78.06 27.42
 69.76 88.58 93.87 87.51 78.06 27.43
 69.74 88.55 93.82 87.47 78.07 27.44
 69.72 88.51 93.79 87.44 78.10 27.45
 69.70 88.48 93.75 87.41 78.12 27.46
 69.71 88.45 93.72 87.38 78.14 27.47
 69.75 88.43 93.69 87.37 78.17 27.48
 69.84 88.41 93.65 87.35 78.19 27.49
 69.84 88.41 93.65 87.35 78.19 27.50
 69.93 88.39 93.62 87.34 78.22 27.51
 69.93 88.39 93.62 87.34 78.22 27.52
 70.05 88.37 93.59 87.33 78.24 27.53
 70.18 88.35 93.56 87.32 78.27 27.54
 70.18 88.35 93.56 87.32 78.27 27.55
 70.18 88.35 93.56 87.32 78.27 27.56
 70.18 88.35 93.56 87.32 78.27 27.57
 70.52 88.32 93.52 87.31 78.32 27.58
 70.64 88.31 93.51 87.31 78.33 27.59
 70.94 88.29 93.49 87.31 78.37 27.60
 70.94 88.29 93.49 87.31 78.37 27.61
 71.22 88.27 93.47 87.30 78.40 27.62
 71.50 88.24 93.44 87.30 78.44 27.63
 71.76 88.21 93.41 87.30 78.48 27.64
 71.76 88.21 93.41 87.30 78.48 27.65
 72.00 88.18 93.37 87.30 78.53 27.66
 72.22 88.15 93.35 87.30 78.57 27.67
 72.22 88.15 93.35 87.30 78.57 27.68
 72.41 88.12 93.33 87.31 78.61 27.69
 72.41 88.12 93.33 87.31 78.61 27.70
 72.60 88.09 93.31 87.31 78.66 27.71
 72.60 88.09 93.31 87.31 78.66 27.72
 72.80 88.06 93.28 87.31 78.70 27.73
 72.80 88.06 93.28 87.31 78.70 27.74
 72.95 88.04 93.25 87.32 78.74 27.75
 72.95 88.04 93.25 87.32 78.74 27.76
 73.11 88.00 93.23 87.32 78.78 27.77
 73.11 88.00 93.23 87.32 78.78 27.77
 73.24 87.97 93.21 87.32 78.82 27.78
 73.24 87.97 93.21 87.32 78.82 27.79
 73.36 87.94 93.18 87.32 78.87 27.80
 73.36 87.94 93.18 87.32 78.87 27.81
 73.36 87.91 93.16 87.31 78.91 27.82
 73.36 87.91 93.16 87.31 78.91 27.84
 73.36 87.91 93.16 87.31 78.91 27.84
 73.08 87.88 93.14 87.31 78.95 27.85
 73.08 87.88 93.14 87.31 78.95 27.86
 72.22 87.85 93.13 87.29 78.98 27.87
 72.22 87.85 93.13 87.29 78.98 27.89
 72.22 87.85 93.13 87.29 78.98 27.90
 70.16 87.82 93.11 87.28 79.01 27.91
 70.16 87.82 93.11 87.28 79.01 27.92
 68.35 87.80 93.10 87.26 79.05 27.93
 68.35 87.80 93.10 87.26 79.05 27.94
 66.52 87.77 93.09 87.25 79.07 27.95
 66.52 87.77 93.09 87.25 79.07 27.96
 65.48 87.75 93.09 87.25 79.11 27.97
 65.48 87.75 93.09 87.25 79.11 27.98
 64.52 87.72 93.07 87.25 79.14 27.99
 64.52 87.72 93.07 87.25 79.14 28.00
 63.41 87.70 93.07 87.24 79.16 28.01
 63.41 87.70 93.07 87.24 79.16 28.02
 62.41 87.67 93.05 87.23 79.19 28.03
 61.31 87.63 93.01 87.22 79.22 28.04
 61.31 87.63 93.01 87.22 79.22 28.05
 60.27 87.57 92.97 87.19 79.24 28.06
 60.27 87.57 92.97 87.19 79.24 28.07
 59.24 87.49 92.91 87.15 79.26 28.08
 59.24 87.49 92.91 87.15 79.26 28.09
 58.33 87.38 92.83 87.11 79.28 28.11
 58.33 87.38 92.83 87.11 79.28 28.12
 57.09 87.24 92.74 87.06 79.30 28.13
 57.09 87.24 92.74 87.06 79.30 28.14
 55.01 87.05 92.65 87.01 79.31 28.15
 55.01 87.05 92.65 87.01 79.31 28.16
 53.24 86.87 92.56 86.96 79.32 28.17
 53.24 86.87 92.56 86.96 79.32 28.18
 52.34 86.66 92.48 86.91 79.32 28.19
 51.87 86.45 92.39 86.87 79.32 28.20
 51.87 86.45 92.39 86.87 79.32 28.21
 51.49 86.26 92.27 86.82 79.32 28.22
 51.20 86.09 92.16 86.77 79.32 28.23
 51.20 86.09 92.16 86.77 79.32 28.24
 51.01 85.93 92.05 86.74 79.32 28.25
 50.85 85.77 91.95 86.71 79.32 28.26
 50.85 85.77 91.95 86.71 79.32 28.27
 50.73 85.63 91.84 86.68 79.32 28.28
 50.64 85.50 91.73 86.63 79.32 28.29
 50.64 85.50 91.73 86.63 79.32 28.30
 50.59 85.39 91.60 86.58 79.32 28.31
 50.59 85.39 91.60 86.58 79.32 28.32
 50.56 85.28 91.50 86.54 79.32 28.33
 50.53 85.19 91.41 86.49 79.32 28.34
 50.53 85.19 91.41 86.49 79.32 28.35
 50.51 85.10 91.34 86.43 79.32 28.36
 50.51 85.10 91.34 86.43 79.32 28.37
 50.48 85.02 91.27 86.38 79.32 28.38
 50.48 85.02 91.27 86.38 79.32 28.39
 50.45 84.95 91.19 86.34 79.31 28.40
 50.45 84.95 91.19 86.34 79.31 28.41
 50.42 84.90 91.12 86.31 79.31 28.42
 50.41 84.85 91.05 86.27 79.31 28.43
 50.41 84.85 91.05 86.27 79.31 28.44
 50.39 84.80 90.99 86.23 79.30 28.45
 50.39 84.80 90.99 86.23 79.30 28.46
 50.38 84.74 90.94 86.19 79.30 28.47
 50.38 84.74 90.94 86.19 79.30 28.49
 50.37 84.69 90.90 86.16 79.29 28.50
 50.37 84.69 90.90 86.16 79.29 28.51
 50.35 84.64 90.87 86.13 79.28 28.52
 50.35 84.64 90.87 86.13 79.28 28.53
 50.35 84.64 90.87 86.13 79.28 28.54
 50.35 84.59 90.85 86.10 79.28 28.55
 50.35 84.59 90.85 86.10 79.28 28.56
 50.34 84.55 90.83 86.08 79.28 28.57
 50.34 84.55 90.83 86.08 79.28 28.58
 50.34 84.55 90.83 86.08 79.28 28.59
 50.34 84.50 90.80 86.05 79.27 28.60
 50.34 84.50 90.80 86.05 79.27 28.61
 50.34 84.50 90.80 86.05 79.27 28.62
 50.34 84.50 90.80 86.05 79.27 28.63
 50.34 84.46 90.76 86.01 79.27 28.64
 50.34 84.46 90.76 86.01 79.27 28.65
 50.34 84.45 90.71 85.98 79.26 28.66
 50.34 84.45 90.71 85.98 79.26 28.67
 50.34 84.45 90.71 85.98 79.26 28.68
 50.34 84.45 90.64 85.95 79.25 28.69
 50.34 84.45 90.64 85.95 79.25 28.70
 50.34 84.45 90.64 85.95 79.25 28.71
 50.35 84.45 90.54 85.90 79.24 28.72
 50.35 84.45 90.54 85.90 79.24 28.73
 50.35 84.45 90.54 85.90 79.24 28.74
 50.68 84.45 90.42 85.86 79.24 28.75
 50.68 84.45 90.42 85.86 79.24 28.76
 50.68 84.45 90.42 85.86 79.24 28.78
 51.57 84.46 90.32 85.83 79.24 28.79
 52.71 84.46 90.29 85.81 79.24 28.80
 52.71 84.46 90.29 85.81 79.24 28.81
 52.71 84.46 90.29 85.81 79.24 28.82
 55.22 84.48 90.27 85.79 79.24 28.83
 55.22 84.48 90.27 85.79 79.24 28.84
 57.60 84.50 90.27 85.79 79.24 28.85
 57.60 84.50 90.27 85.79 79.24 28.85
 59.80 84.54 90.28 85.79 79.24 28.86
 59.80 84.54 90.28 85.79 79.24 28.87
 61.44 84.58 90.29 85.79 79.24 28.88
 64.08 84.63 90.32 85.79 79.24 28.89
 65.67 84.71 90.35 85.81 79.26 28.90
 66.89 84.76 90.38 85.82 79.26 28.91
 68.28 84.82 90.43 85.84 79.27 28.92
 69.26 84.85 90.47 85.86 79.29 28.93
 69.96 84.89 90.50 85.88 79.31 28.94
 69.96 84.89 90.50 85.88 79.31 28.95
 70.55 84.93 90.53 85.90 79.33 28.96
 70.96 84.96 90.55 85.92 79.35 28.97
 70.96 84.96 90.55 85.92 79.35 28.98
 71.28 84.99 90.57 85.94 79.38 28.99
 71.56 85.00 90.59 85.96 79.40 29.00
 71.56 85.00 90.59 85.96 79.40 29.01
 71.77 85.01 90.61 85.98 79.43 29.02
 71.97 85.02 90.63 85.99 79.45 29.03
 71.97 85.02 90.63 85.99 79.45 29.04
 72.13 85.04 90.65 86.02 79.50 29.05
 72.13 85.04 90.65 86.02 79.50 29.06
 72.13 85.04 90.65 86.02 79.50 29.07
 72.26 85.05 90.67 86.07 79.59 29.08
 72.43 85.05 90.71 86.10 79.62 29.09
 72.43 85.05 90.71 86.10 79.62 29.10
 72.55 85.04 90.75 86.13 79.64 29.11
 72.61 85.03 90.76 86.14 79.66 29.12
 72.61 85.03 90.76 86.14 79.66 29.13
 72.68 85.00 90.77 86.15 79.68 29.14
 72.68 85.00 90.77 86.15 79.68 29.15
 72.73 84.97 90.78 86.17 79.70 29.16
 72.73 84.97 90.78 86.17 79.70 29.17
 72.78 84.89 90.78 86.18 79.72 29.18
 72.78 84.89 90.78 86.18 79.72 29.19
 72.83 84.73 90.78 86.19 79.75 29.20
 72.83 84.73 90.78 86.19 79.75 29.21
 72.86 84.41 90.80 86.22 79.76 29.22
 72.86 84.41 90.80 86.22 79.76 29.23
 72.81 83.82 90.84 86.29 79.76 29.24
 72.81 83.82 90.84 86.29 79.76 29.25
 72.81 83.82 90.84 86.29 79.76 29.26
 72.55 82.64 90.93 86.42 79.77 29.27
 72.55 82.64 90.93 86.42 79.77 29.28
 72.16 80.60 91.05 86.57 79.80 29.29
 72.16 80.60 91.05 86.57 79.80 29.31
 71.83 78.56 91.12 86.70 79.84 29.32
 71.83 78.56 91.12 86.70 79.84 29.33
 71.56 77.21 91.14 86.77 79.89 29.34
 71.56 77.21 91.14 86.77 79.89 29.35
 71.34 75.39 91.15 86.81 79.93 29.36
 71.14 57.19 91.15 86.82 79.94 29.37
 71.14 57.19 91.15 86.82 79.94 29.38
 70.95 53.50 91.14 86.82 79.94 29.39
 70.78 52.56 91.11 86.82 79.93 29.40
 70.78 52.56 91.11 86.82 79.93 29.41
 70.65 52.10 91.05 86.82 79.92 29.42
 70.52 51.78 90.96 86.81 79.91 29.43
 70.43 51.56 90.87 86.79 79.88 29.44
 70.38 51.38 90.74 86.77 79.85 29.45
 70.38 51.38 90.74 86.77 79.85 29.46
 70.32 51.18 90.61 86.72 79.81 29.47
 70.26 51.01 90.47 86.66 79.76 29.48
 70.25 50.87 90.28 86.58 79.70 29.49
 70.25 50.87 90.28 86.58 79.70 29.50
 70.25 50.77 90.08 86.52 79.63 29.51
 70.25 50.77 90.08 86.52 79.63 29.52
 70.27 50.70 89.82 86.44 79.52 29.53
 70.28 50.67 89.71 86.41 79.47 29.54
 70.28 50.64 89.58 86.32 79.38 29.55
 70.28 50.61 89.45 86.24 79.27 29.56
 70.28 50.59 89.33 86.18 79.17 29.57
 70.30 50.58 89.23 86.12 79.08 29.58
 70.33 50.56 89.15 86.07 79.00 29.59
 70.35 50.55 89.10 86.01 78.91 29.60
 70.39 50.54 89.04 85.96 78.83 29.61
 70.39 50.54 89.04 85.96 78.83 29.62
 70.41 50.53 88.99 85.90 78.76 29.63
 70.45 50.53 88.95 85.83 78.70 29.64
 70.46 50.53 88.92 85.79 78.64 29.65
 70.48 50.53 88.88 85.73 78.58 29.66
 70.48 50.53 88.88 85.73 78.58 29.67
 70.49 50.54 88.85 85.67 78.51 29.68
 70.53 50.55 88.81 85.64 78.45 29.69
 70.53 50.55 88.81 85.64 78.45 29.70
 70.57 50.56 88.79 85.63 78.40 29.71
 70.57 50.56 88.79 85.63 78.40 29.72
 70.57 50.56 88.79 85.63 78.40 29.73
 70.58 50.57 88.77 85.61 78.36 29.74
 70.58 50.57 88.77 85.61 78.36 29.75
 70.61 50.59 88.75 85.60 78.33 29.76
 70.61 50.59 88.75 85.60 78.33 29.77
 70.61 50.59 88.75 85.60 78.33 29.78
 70.61 50.59 88.75 85.60 78.33 29.79
 70.61 50.59 88.75 85.60 78.33 29.80
 70.61 50.59 88.75 85.60 78.33 29.81
 70.61 50.59 88.75 85.60 78.33 29.82
 70.66 50.64 88.71 85.58 78.29 29.83
 70.66 50.64 88.71 85.58 78.29 29.84
 70.67 50.65 88.70 85.57 78.29 29.85
 70.67 50.65 88.70 85.57 78.29 29.86
 70.67 50.65 88.70 85.57 78.29 29.88
 70.69 50.67 88.69 85.54 78.29 29.89
 70.69 50.67 88.69 85.54 78.29 29.90
 70.69 50.67 88.69 85.54 78.29 29.90
 70.76 50.67 88.68 85.52 78.28 29.91
 70.76 50.67 88.68 85.52 78.28 29.93
 70.76 50.67 88.68 85.52 78.28 29.93
 70.85 50.67 88.73 85.51 78.28 29.94
 70.85 50.67 88.73 85.51 78.28 29.95
 70.85 50.67 88.73 85.51 78.28 29.96
 71.20 50.68 88.84 85.50 78.32 29.97
 71.20 50.68 88.84 85.50 78.32 29.98
 72.03 51.30 88.94 85.40 78.45 30.00
 72.03 51.30 88.94 85.40 78.45 30.01
 72.03 51.30 88.94 85.40 78.45 30.02
 73.59 52.98 89.00 85.04 78.56 30.02
 73.59 52.98 89.00 85.04 78.56 30.03
 73.60 77.48 90.28 85.26 78.67 30.04
 73.60 77.48 90.28 85.26 78.67 30.05
 73.65 84.92 91.26 85.51 78.74 30.06
 73.65 84.92 91.26 85.51 78.74 30.07
 73.72 85.74 91.46 85.60 78.79 30.08
 73.83 85.97 91.51 85.64 78.84 30.09
 74.00 86.10 91.54 85.66 78.90 30.10
 74.00 86.10 91.54 85.66 78.90 30.11
 74.21 86.20 91.56 85.68 78.95 30.12
 74.43 86.29 91.58 85.69 79.01 30.13
 74.64 86.35 91.61 85.72 79.08 30.14
 74.64 86.35 91.61 85.72 79.08 30.16
 74.82 86.42 91.64 85.75 79.15 30.17
 74.92 86.47 91.67 85.77 79.20 30.18
 75.07 86.53 91.71 85.81 79.27 30.19
 75.13 86.56 91.74 85.84 79.32 30.20
 75.13 86.56 91.74 85.84 79.32 30.21
 75.18 86.60 91.78 85.88 79.38 30.22
 75.21 86.63 91.81 85.90 79.42 30.23
 75.25 86.66 91.85 85.93 79.46 30.24
 75.29 86.68 91.88 85.96 79.51 30.25
 75.33 86.69 91.91 85.98 79.54 30.26
 75.35 86.71 91.94 86.00 79.57 30.27
 75.37 86.72 91.97 86.02 79.60 30.28
 75.37 86.72 91.97 86.02 79.60 30.29
 75.38 86.73 91.99 86.04 79.63 30.30
 75.39 86.74 92.01 86.06 79.65 30.31
 75.39 86.74 92.02 86.08 79.68 30.32
 75.39 86.74 92.03 86.10 79.70 30.33
 75.38 86.74 92.04 86.12 79.72 30.34
 75.38 86.74 92.04 86.12 79.72 30.35
 75.38 86.75 92.05 86.14 79.74 30.36
 75.37 86.75 92.04 86.16 79.76 30.37
 75.37 86.75 92.04 86.16 79.76 30.38
 75.37 86.75 92.04 86.16 79.76 30.39
 75.33 86.75 92.02 86.18 79.79 30.40
 75.33 86.75 92.02 86.18 79.79 30.41
 75.24 86.75 91.99 86.19 79.81 30.42
 75.24 86.75 91.99 86.19 79.81 30.43
 75.24 86.75 91.99 86.19 79.81 30.44
 75.12 86.75 91.95 86.21 79.84 30.45
 75.12 86.75 91.95 86.21 79.84 30.46
 75.00 86.74 91.86 86.22 79.86 30.47
 75.00 86.74 91.86 86.22 79.86 30.48
 74.93 86.73 91.72 86.23 79.88 30.49
 74.93 86.73 91.72 86.23 79.88 30.50
 74.93 86.73 91.72 86.23 79.88 30.51
 74.84 86.73 91.42 86.23 79.89 30.52
 74.84 86.73 91.42 86.23 79.89 30.53
 74.84 86.73 91.42 86.23 79.89 30.54
 74.59 86.73 90.79 86.24 79.91 30.55
 74.59 86.73 90.79 86.24 79.91 30.56
 74.06 86.76 89.47 86.25 79.90 30.57
 74.06 86.76 89.47 86.25 79.90 30.58
 74.06 86.76 89.47 86.25 79.90 30.59
 73.36 86.81 87.57 86.24 79.83 30.60
 73.36 86.81 87.57 86.24 79.83 30.61
 72.61 86.84 85.47 86.05 79.78 30.63
 72.61 86.84 85.47 86.05 79.78 30.64
 72.04 86.85 84.94 85.15 79.73 30.65
 71.64 86.84 84.79 84.06 79.68 30.66
 71.30 86.81 84.72 83.20 79.63 30.67
 71.30 86.81 84.72 83.20 79.63 30.68
 71.04 86.69 85.19 82.09 79.58 30.69
 70.86 86.49 86.37 81.42 79.52 30.70
 70.69 86.21 87.94 81.04 79.46 30.71
 70.69 86.21 87.94 81.04 79.46 30.72
 70.53 85.88 89.06 80.65 79.41 30.73
 70.38 85.62 89.48 80.16 79.36 30.74
 70.25 85.43 89.59 79.67 79.30 30.75
 70.15 85.26 89.64 79.18 79.25 30.76
 70.05 85.10 89.66 78.70 79.18 30.77
 70.05 85.10 89.66 78.70 79.18 30.78
 69.98 84.94 89.67 78.24 79.12 30.79
 69.90 84.79 89.68 77.77 79.06 30.80
 69.81 84.63 89.69 77.33 79.00 30.81
 69.73 84.51 89.70 76.89 78.95 30.82
 69.73 84.51 89.70 76.89 78.95 30.83
 69.66 84.38 89.71 76.51 78.89 30.84
 69.66 84.38 89.71 76.51 78.89 30.85
 69.61 84.24 89.72 76.20 78.83 30.86
 69.58 84.11 89.72 75.93 78.77 30.87
 69.58 83.97 89.73 75.60 78.69 30.88
 69.58 83.97 89.73 75.60 78.69 30.89
 69.57 83.91 89.74 75.43 78.66 30.90
 69.57 83.83 89.74 75.18 78.62 30.91
 69.56 83.75 89.75 74.92 78.58 30.92
 69.56 83.68 89.75 74.67 78.55 30.93
 69.56 83.68 89.75 74.67 78.55 30.94
 69.56 83.60 89.75 74.46 78.51 30.95
 69.57 83.53 89.76 74.25 78.48 30.96
 69.57 83.53 89.76 74.25 78.48 30.97
 69.57 83.47 89.76 73.96 78.46 30.98
 69.59 83.41 89.76 73.71 78.45 30.99
 69.59 83.41 89.76 73.71 78.45 31.00
 69.61 83.32 89.77 73.51 78.43 31.01
 69.61 83.32 89.77 73.51 78.43 31.02
 69.64 83.25 89.77 73.32 78.41 31.03
 69.64 83.25 89.77 73.32 78.41 31.04
 69.68 83.16 89.77 73.15 78.39 31.05
 69.68 83.16 89.77 73.15 78.39 31.06
 69.68 83.16 89.77 73.15 78.39 31.07
 69.71 83.09 89.78 72.91 78.38 31.08
 69.71 83.09 89.78 72.91 78.38 31.09
 69.76 83.03 89.78 72.66 78.36 31.10
 69.76 83.03 89.78 72.66 78.36 31.11
 69.80 82.96 89.78 72.49 78.36 31.12
 69.80 82.96 89.78 72.49 78.36 31.13
 69.92 82.89 89.78 72.47 78.36 31.14
 69.92 82.89 89.78 72.47 78.36 31.15
 69.92 82.89 89.78 72.47 78.36 31.16
 70.17 82.81 89.78 72.61 78.37 31.17
 70.17 82.81 89.78 72.61 78.37 31.18
 70.17 82.81 89.78 72.61 78.37 31.19
 70.67 82.73 89.70 73.55 78.39 31.20
 70.67 82.73 89.70 73.55 78.39 31.21
 70.67 82.73 89.70 73.55 78.39 31.22
 71.62 82.71 89.36 75.27 78.42 31.23
 71.62 82.71 89.36 75.27 78.42 31.25
 72.12 82.72 88.25 76.40 78.49 31.26
 72.12 82.72 88.25 76.40 78.49 31.27
 72.12 82.72 88.25 76.40 78.49 31.28
 72.39 82.79 87.16 78.12 78.63 31.29
 72.69 82.81 87.11 79.70 78.77 31.30
 72.69 82.81 87.11 79.70 78.77 31.31
 73.02 82.73 87.18 80.69 78.84 31.32
 73.33 82.65 87.46 81.35 78.85 31.33
 73.33 82.65 87.46 81.35 78.85 31.34
 73.61 82.63 87.88 81.96 78.84 31.35
 73.83 82.63 88.30 82.56 78.86 31.36
 73.83 82.63 88.30 82.56 78.86 31.37
 74.01 82.64 88.75 83.15 78.91 31.38
 74.11 82.65 89.20 83.62 78.97 31.39
 74.11 82.65 89.20 83.62 78.97 31.40
 74.17 82.70 89.60 84.01 79.05 31.41
 74.20 82.81 89.92 84.34 79.11 31.42
 74.20 82.81 89.92 84.34 79.11 31.43
 74.22 83.00 90.21 84.65 79.18 31.44
 74.22 83.19 90.47 84.91 79.27 31.45
 74.22 83.19 90.47 84.91 79.27 31.46
 74.21 83.39 90.72 85.10 79.34 31.47
 74.21 83.39 90.72 85.10 79.34 31.48
 74.18 83.59 90.93 85.30 79.43 31.49
 74.14 83.76 91.10 85.47 79.53 31.50
 74.08 83.93 91.25 85.63 79.64 31.51
 74.08 83.93 91.25 85.63 79.64 31.52
 74.03 84.07 91.38 85.78 79.77 31.53
 73.99 84.19 91.52 85.90 79.90 31.54
 73.99 84.19 91.52 85.90 79.90 31.55
 73.92 84.28 91.65 86.00 80.01 31.56
 73.81 84.38 91.74 86.10 80.11 31.57
 73.69 84.48 91.84 86.15 80.22 31.58
 73.69 84.48 91.84 86.15 80.22 31.59
 73.53 84.57 91.92 86.20 80.33 31.60
 73.38 84.65 92.01 86.24 80.44 31.61
 73.38 84.65 92.01 86.24 80.44 31.62
 73.23 84.71 92.07 86.28 80.52 31.63
 73.23 84.71 92.07 86.28 80.52 31.64
 73.08 84.75 92.14 86.32 80.60 31.65
 73.08 84.75 92.14 86.32 80.60 31.66
 72.91 84.78 92.18 86.35 80.67 31.67
 72.91 84.78 92.18 86.35 80.67 31.68
 72.77 84.80 92.23 86.36 80.73 31.69
 72.77 84.80 92.23 86.36 80.73 31.70
 72.66 84.84 92.26 86.37 80.79 31.72
 72.66 84.84 92.26 86.37 80.79 31.73
 72.55 84.87 92.30 86.31 80.83 31.74
 72.55 84.87 92.30 86.31 80.83 31.75
 72.55 84.87 92.30 86.31 80.83 31.76
 72.42 84.93 92.34 86.09 80.86 31.77
 72.42 84.93 92.34 86.09 80.86 31.78
 72.19 85.01 92.36 85.47 80.88 31.79
 72.19 85.01 92.36 85.47 80.88 31.80
 72.19 85.01 92.36 85.47 80.88 31.81
 71.79 85.11 92.36 84.52 80.89 31.82
 71.79 85.11 92.36 84.52 80.89 31.83
 71.38 85.19 92.32 84.09 80.89 31.84
 71.38 85.19 92.32 84.09 80.89 31.85
 71.02 85.25 92.17 84.08 80.88 31.86
 71.02 85.25 92.17 84.08 80.88 31.87
 70.72 85.29 91.93 84.10 80.82 31.88
 70.72 85.29 91.93 84.10 80.82 31.89
 70.46 85.31 91.55 84.12 80.66 31.90
 70.46 85.31 91.55 84.12 80.66 31.91
 70.22 85.33 91.10 84.11 80.44 31.92
 70.22 85.33 91.10 84.11 80.44 31.93
 70.02 85.34 90.72 84.05 80.24 31.94
 70.02 85.34 90.72 84.05 80.24 31.95
 69.87 85.35 90.39 83.92 80.02 31.96
 69.87 85.35 90.39 83.92 80.02 31.97
 69.76 85.35 90.07 83.65 79.82 31.98
 69.76 85.35 90.07 83.65 79.82 31.99
 69.65 85.32 89.75 83.26 79.53 32.00
 69.65 85.32 89.75 83.26 79.53 32.01
 69.65 85.32 89.75 83.26 79.53 32.02
 69.65 85.32 89.75 83.26 79.53 32.03
 69.52 85.24 89.37 82.79 79.12 32.04
 69.52 85.24 89.37 82.79 79.12 32.05
 69.49 85.21 89.26 82.61 78.98 32.06
 69.49 85.21 89.26 82.61 78.98 32.07
 69.46 85.12 89.09 82.30 78.79 32.08
 69.42 85.02 88.90 81.93 78.60 32.09
 69.42 85.02 88.90 81.93 78.60 32.10
 69.39 84.92 88.71 81.60 78.46 32.11
 69.39 84.92 88.71 81.60 78.46 32.12
 69.38 84.81 88.56 81.34 78.35 32.13
 69.38 84.81 88.56 81.34 78.35 32.14
 69.36 84.70 88.44 81.10 78.27 32.15
 69.36 84.70 88.44 81.10 78.27 32.16
 69.36 84.59 88.34 80.91 78.20 32.17
 69.36 84.49 88.23 80.77 78.14 32.18
 69.36 84.49 88.23 80.77 78.14 32.19
 69.36 84.39 88.14 80.68 78.08 32.20
 69.36 84.39 88.14 80.68 78.08 32.21
 69.36 84.31 88.06 80.58 78.02 32.22
 69.36 84.31 88.06 80.58 78.02 32.23
 69.38 84.23 87.97 80.47 77.97 32.24
 69.38 84.23 87.97 80.47 77.97 32.25
 69.41 84.17 87.88 80.35 77.92 32.26
 69.41 84.17 87.88 80.35 77.92 32.27
 69.44 84.10 87.79 80.24 77.85 32.28
 69.44 84.10 87.79 80.24 77.85 32.29
 69.48 84.04 87.71 80.13 77.79 32.30
 69.48 84.04 87.71 80.13 77.79 32.31
 69.51 83.98 87.64 80.04 77.74 32.32
 69.51 83.98 87.64 80.04 77.74 32.33
 69.51 83.98 87.64 80.04 77.74 32.34
 69.54 83.92 87.55 79.96 77.69 32.35
 69.54 83.92 87.55 79.96 77.69 32.36
 69.54 83.92 87.55 79.96 77.69 32.37
 69.61 83.88 87.46 79.88 77.64 32.38
 69.61 83.88 87.46 79.88 77.64 32.40
 69.69 83.85 87.42 79.80 77.61 32.41
 69.69 83.85 87.42 79.80 77.61 32.42
 69.86 83.82 87.41 79.75 77.61 32.43
 69.86 83.82 87.41 79.75 77.61 32.44
 69.86 83.82 87.41 79.75 77.61 32.45
 70.12 83.79 87.42 79.73 77.64 32.46
 70.12 83.79 87.42 79.73 77.64 32.47
 70.48 83.76 87.52 79.72 77.71 32.48
 70.48 83.76 87.52 79.72 77.71 32.49
 70.48 83.76 87.52 79.72 77.71 32.50
 70.87 83.75 87.85 79.31 77.81 32.51
 70.87 83.75 87.85 79.31 77.81 32.52
 70.87 83.75 87.85 79.31 77.81 32.53
 71.37 83.77 88.29 78.98 77.93 32.54
 71.37 83.77 88.29 78.98 77.93 32.55
 71.37 83.77 88.29 78.98 77.93 32.56
 72.06 83.81 88.65 78.97 78.01 32.57
 72.06 83.81 88.65 78.97 78.01 32.58
 72.74 83.84 88.87 79.27 78.04 32.59
 72.74 83.84 88.87 79.27 78.04 32.60
 74.43 84.59 90.03 82.06 78.88 32.61
 74.43 84.59 90.03 82.06 78.88 32.63
 75.23 85.17 90.83 83.43 79.35 32.64
 75.23 85.17 90.83 83.43 79.35 32.65
 75.83 85.60 91.36 84.56 79.70 32.66
 75.83 85.60 91.36 84.56 79.70 32.67
 76.35 85.95 91.84 85.47 79.99 32.68
 76.35 85.95 91.84 85.47 79.99 32.69
 76.88 86.24 92.40 86.09 80.25 32.70
 77.31 86.51 92.99 86.58 80.49 32.71
 77.31 86.51 92.99 86.58 80.49 32.72
 77.65 86.77 93.44 87.02 80.76 32.73
 77.65 86.77 93.44 87.02 80.76 32.74
 77.91 87.04 93.83 87.45 81.01 32.75
 77.91 87.04 93.83 87.45 81.01 32.76
 78.11 87.28 94.28 87.79 81.24 32.77
 78.11 87.28 94.28 87.79 81.24 32.78
 78.26 87.53 94.69 88.07 81.46 32.79
 78.26 87.53 94.69 88.07 81.46 32.80
 78.38 87.79 95.01 88.24 81.67 32.81
 78.47 88.04 95.27 88.50 81.85 32.82
 78.47 88.04 95.27 88.50 81.85 32.83
 78.52 88.25 95.41 88.72 82.01 32.84
 78.56 88.47 95.62 88.89 82.15 32.85
 78.56 88.47 95.62 88.89 82.15 32.86
 78.59 88.63 95.83 89.06 82.27 32.87
 78.59 88.63 95.83 89.06 82.27 32.88
 78.60 88.78 95.98 89.24 82.38 32.89
 78.60 88.78 95.98 89.24 82.38 32.91
 78.59 88.89 96.10 89.41 82.50 32.92
 78.59 88.89 96.10 89.41 82.50 32.93
 78.55 88.95 96.26 89.56 82.61 32.94
 78.55 88.95 96.26 89.56 82.61 32.95
 78.49 88.99 96.43 89.67 82.66 32.96
 78.49 88.99 96.43 89.67 82.66 32.97
 78.49 88.99 96.43 89.67 82.66 32.98
 78.39 89.00 96.61 89.76 82.63 32.99
 78.39 89.00 96.61 89.76 82.63 33.00
 78.24 88.97 96.78 89.85 82.47 33.01
 78.24 88.97 96.78 89.85 82.47 33.02
 78.24 88.97 96.78 89.85 82.47 33.03
 77.89 88.91 96.97 89.98 81.98 33.04
 77.89 88.91 96.97 89.98 81.98 33.05
 76.99 88.83 97.18 90.04 81.15 33.06
 76.99 88.83 97.18 90.04 81.15 33.07
 76.99 88.83 97.18 90.04 81.15 33.08
 76.47 88.73 97.40 90.04 81.04 33.09
 76.47 88.73 97.40 90.04 81.04 33.10
 76.17 88.64 97.58 90.02 59.38 33.11
 76.17 88.64 97.58 90.02 59.38 33.12
 76.04 88.54 97.71 89.99 55.46 33.13
 76.04 88.54 97.71 89.99 55.46 33.14
 75.91 88.43 97.79 89.94 55.15 33.15
 75.91 88.43 97.79 89.94 55.15 33.16
 75.81 88.34 97.84 89.88 55.13 33.17
 75.67 88.20 97.89 89.74 55.12 33.18
 75.54 88.05 97.91 89.57 55.13 33.19
 75.40 87.91 97.90 89.38 55.15 33.20
 75.29 87.76 97.87 89.19 55.16 33.21
 75.29 87.76 97.87 89.19 55.16 33.22
 75.19 87.62 97.84 89.02 55.18 33.23
 75.09 87.50 97.81 88.88 55.16 33.24
 75.00 87.37 97.78 88.75 55.12 33.25
 75.00 87.37 97.78 88.75 55.12 33.26
 74.91 87.25 97.71 88.59 55.09 33.27
 74.84 87.12 97.67 88.41 55.04 33.28
 74.80 87.03 97.64 88.29 54.95 33.29
 74.76 86.93 97.60 88.15 54.78 33.30
 74.73 86.81 97.55 88.02 54.59 33.31
 74.70 86.70 97.50 87.88 54.38 33.32
 74.69 86.59 97.45 87.75 54.17 33.33
 74.69 86.59 97.45 87.75 54.17 33.34
 74.68 86.50 97.38 87.61 53.98 33.35
 74.67 86.42 97.30 87.47 53.73 33.36
 74.66 86.34 97.24 87.30 53.48 33.37
 74.63 86.27 97.19 87.13 53.26 33.38
 74.63 86.27 97.19 87.13 53.26 33.39
 74.63 86.18 97.12 86.92 53.00 33.40
 74.63 86.18 97.12 86.92 53.00 33.41
 74.64 86.11 97.05 86.77 52.81 33.42
 74.64 86.11 97.05 86.77 52.81 33.43
 74.64 86.03 96.96 86.63 52.62 33.44
 74.64 86.03 96.96 86.63 52.62 33.45
 74.64 85.95 96.86 86.51 52.46 33.46
 74.64 85.95 96.86 86.51 52.46 33.47
 74.64 85.95 96.86 86.51 52.46 33.48
 74.65 85.85 96.77 86.40 52.29 33.49
 74.65 85.85 96.77 86.40 52.29 33.50
 74.67 85.75 96.69 86.30 52.14 33.51
 74.67 85.75 96.69 86.30 52.14 33.52
 74.70 85.64 96.62 86.18 52.00 33.53
 74.70 85.64 96.62 86.18 52.00 33.54
 74.70 85.64 96.62 86.18 52.00 33.55
 74.74 85.54 96.51 86.07 51.88 33.56
 74.74 85.54 96.51 86.07 51.88 33.57
 74.74 85.54 96.51 86.07 51.88 33.58
 74.77 85.45 96.43 85.96 51.78 33.59
 74.77 85.45 96.43 85.96 51.78 33.60
 74.79 85.39 96.34 85.85 51.69 33.61
 74.79 85.39 96.34 85.85 51.69 33.62
 74.79 85.39 96.34 85.85 51.69 33.63
 74.84 85.34 96.27 85.75 51.63 33.64
 74.84 85.34 96.27 85.75 51.63 33.65
 74.84 85.34 96.27 85.75 51.63 33.66
 74.95 85.30 96.18 85.70 51.57 33.67
 74.95 85.30 96.18 85.70 51.57 33.68
 74.95 85.30 96.18 85.70 51.57 33.70
 75.28 85.28 96.03 85.75 51.55 33.71
 75.28 85.28 96.03 85.75 51.55 33.72
 75.28 85.28 96.03 85.75 51.55 33.73
 75.76 85.28 95.84 85.97 52.02 33.74
 75.76 85.28 95.84 85.97 52.02 33.75
 75.76 85.28 95.84 85.97 52.02 33.76
 76.72 85.28 95.69 86.14 53.76 33.77
 76.72 85.28 95.69 86.14 53.76 33.78
 76.72 85.28 95.69 86.14 53.76 33.79
 77.87 85.33 95.59 86.26 56.22 33.80
 77.87 85.33 95.59 86.26 56.22 33.81
 78.51 85.44 95.49 86.39 58.91 33.82
 78.51 85.44 95.49 86.39 58.91 33.83
 79.02 85.78 95.38 86.51 61.60 33.84
 79.28 86.20 95.36 86.64 63.66 33.85
 79.28 86.20 95.36 86.64 63.66 33.86
 79.43 86.70 95.35 86.80 65.45 33.87
 79.43 86.70 95.35 86.80 65.45 33.88
 79.55 87.15 95.36 86.96 71.54 33.89
 79.60 87.50 95.39 87.17 75.50 33.90
 79.60 87.50 95.39 87.17 75.50 33.91
 79.61 87.82 95.45 87.38 77.29 33.92
 79.58 88.12 95.54 87.51 78.30 33.93
 79.58 88.12 95.54 87.51 78.30 33.94
 79.47 88.42 95.65 87.59 79.03 33.95
 79.41 88.66 95.74 87.86 79.53 33.96
 79.37 88.87 95.82 88.08 79.97 33.97
 79.31 89.07 95.95 88.19 80.34 33.98
 79.31 89.07 95.95 88.19 80.34 33.99
 79.28 89.24 96.08 88.32 80.63 34.00
 79.26 89.40 96.18 88.49 80.88 34.01
 79.24 89.55 96.27 88.62 81.10 34.02
 79.24 89.55 96.27 88.62 81.10 34.03
 79.17 89.71 96.37 88.71 81.47 34.04
 79.06 89.86 96.48 88.80 81.83 34.05
 79.06 89.86 96.48 88.80 81.83 34.06
 78.95 89.99 96.60 88.92 82.10 34.07
 78.83 90.07 96.69 89.19 82.19 34.08
 78.83 90.07 96.69 89.19 82.19 34.09
 78.72 90.15 96.76 89.39 82.26 34.10
 78.65 90.21 96.84 89.53 82.33 34.11
 78.65 90.21 96.84 89.53 82.33 34.12
 78.59 90.27 96.91 89.64 82.39 34.13
 78.54 90.31 96.98 89.73 82.45 34.14
 78.54 90.31 96.98 89.73 82.45 34.15
 78.47 90.36 97.04 89.81 82.51 34.16
 78.39 90.40 97.08 89.91 82.57 34.17
 78.39 90.40 97.08 89.91 82.57 34.18
 78.30 90.45 97.11 89.98 82.63 34.19
 78.30 90.45 97.11 89.98 82.63 34.20
 78.10 90.48 97.14 90.05 82.69 34.21
 78.10 90.48 97.14 90.05 82.69 34.22
 78.10 90.48 97.14 90.05 82.69 34.24
 77.56 90.51 97.15 90.12 82.73 34.25
 77.56 90.51 97.15 90.12 82.73 34.26
 76.23 90.55 97.16 90.16 82.75 34.27
 76.23 90.55 97.16 90.16 82.75 34.28
 73.91 90.59 97.18 90.19 82.73 34.29
 73.91 90.59 97.18 90.19 82.73 34.30
 73.91 90.59 97.18 90.19 82.73 34.31
 69.88 90.64 97.20 90.21 82.66 34.32
 59.49 90.71 97.22 90.21 82.54 34.33
 59.49 90.71 97.22 90.21 82.54 34.34
 59.49 90.71 97.22 90.21 82.54 34.35
 54.75 90.77 97.25 90.23 82.47 34.36
 54.75 90.77 97.25 90.23 82.47 34.37
 52.91 90.81 97.29 90.24 82.46 34.38
 51.57 90.83 97.33 90.27 82.47 34.39
 50.70 90.85 97.36 90.30 82.50 34.40
 50.70 90.85 97.36 90.30 82.50 34.41
 50.70 90.85 97.36 90.30 82.50 34.42
 49.13 90.86 97.39 90.41 82.59 34.43
 49.13 90.86 97.39 90.41 82.59 34.44
 48.80 90.86 97.40 90.46 82.64 34.44
 48.51 90.84 97.41 90.52 82.74 34.45
 48.46 90.80 97.42 90.59 82.86 34.46
 48.50 90.75 97.42 90.64 82.97 34.47
 48.50 90.75 97.42 90.64 82.97 34.48
 48.57 90.67 97.43 90.68 83.06 34.49
 48.65 90.61 97.43 90.73 83.15 34.51
 48.73 90.54 97.44 90.77 83.23 34.52
 48.73 90.54 97.44 90.77 83.23 34.53
 48.84 90.46 97.44 90.81 83.29 34.54
 48.95 90.38 97.43 90.82 83.34 34.55
 49.10 90.29 97.42 90.85 83.37 34.56
 49.10 90.29 97.42 90.85 83.37 34.57
 49.23 90.20 97.41 90.88 83.39 34.58
 49.23 90.20 97.41 90.88 83.39 34.59
 49.31 90.12 97.39 90.91 83.40 34.60
 49.37 90.02 97.37 90.94 83.41 34.61
 49.41 89.89 97.35 90.99 83.42 34.62
 49.41 89.89 97.35 90.99 83.42 34.63
 49.42 89.82 97.34 91.01 83.41 34.64
 49.40 89.73 97.33 91.02 83.40 34.65
 49.40 89.73 97.33 91.02 83.40 34.66
 49.37 89.65 97.32 91.05 83.38 34.67
 49.37 89.65 97.32 91.05 83.38 34.68
 49.33 89.56 97.31 91.06 83.35 34.69
 49.33 89.56 97.31 91.06 83.35 34.70
 49.26 89.48 97.30 91.06 83.33 34.71
 49.26 89.48 97.30 91.06 83.33 34.72
 49.20 89.40 97.29 91.07 83.29 34.73
 49.20 89.40 97.29 91.07 83.29 34.74
 49.16 89.31 97.28 91.09 83.24 34.75
 49.16 89.31 97.28 91.09 83.24 34.76
 49.14 89.23 97.26 91.11 83.20 34.77
 49.14 89.23 97.26 91.11 83.20 34.78
 49.14 89.23 97.26 91.11 83.20 34.79
 49.12 89.15 97.25 91.13 83.16 34.80
 49.12 89.15 97.25 91.13 83.16 34.81
 49.12 89.15 97.25 91.13 83.16 34.82
 49.10 89.09 97.25 91.15 83.12 34.83
 49.10 89.09 97.25 91.15 83.12 34.84
 49.07 89.04 97.24 91.18 83.09 34.85
 49.07 89.04 97.24 91.18 83.09 34.87
 48.98 89.01 97.24 91.21 83.06 34.88
 48.98 89.01 97.24 91.21 83.06 34.89
 48.98 89.01 97.24 91.21 83.06 34.90
 48.94 88.99 97.24 91.22 83.06 34.91
 48.94 88.99 97.24 91.22 83.06 34.92
 48.94 88.99 97.24 91.22 83.06 34.93
 48.86 89.01 97.23 91.23 83.08 34.94
 48.86 89.01 97.23 91.23 83.08 34.95
 48.41 89.05 97.23 91.23 83.12 34.96
 48.41 89.05 97.23 91.23 83.12 34.97
 48.41 89.05 97.23 91.23 83.12 34.98
 48.41 89.05 97.23 91.23 83.12 34.99
 47.96 89.07 97.22 91.23 83.18 35.00
 47.96 89.07 97.22 91.23 83.18 35.01
 49.08 89.12 97.20 91.23 83.23 35.02
 49.08 89.12 97.20 91.23 83.23 35.03
 49.08 89.12 97.20 91.23 83.23 35.04
 50.53 89.16 97.17 91.24 83.28 35.05
 50.53 89.16 97.17 91.24 83.28 35.06
 51.73 89.20 97.14 91.25 83.31 35.07
 51.73 89.20 97.14 91.25 83.31 35.08
 53.48 89.24 97.12 91.27 83.33 35.09
 53.48 89.24 97.12 91.27 83.33 35.10
 54.72 89.26 97.11 91.27 83.34 35.11
 54.72 89.26 97.11 91.27 83.34 35.12
 57.10 89.29 97.09 91.29 83.37 35.13
 57.10 89.29 97.09 91.29 83.37 35.14
 58.50 89.32 97.09 91.30 83.39 35.15
 58.50 89.32 97.09 91.30 83.39 35.16
 61.39 89.36 97.08 91.31 83.44 35.17
 62.82 89.37 97.08 91.32 83.47 35.18
 62.82 89.37 97.08 91.32 83.47 35.19
 64.61 89.39 97.09 91.34 83.51 35.19
 66.50 89.41 97.09 91.36 83.57 35.20
 66.50 89.41 97.09 91.36 83.57 35.21
 67.77 89.42 97.09 91.37 83.63 35.22
 67.77 89.42 97.09 91.37 83.63 35.23
 68.49 89.44 97.10 91.38 83.67 35.24
 68.49 89.44 97.10 91.38 83.67 35.25
 68.85 89.44 97.10 91.38 83.70 35.26
 69.46 89.45 97.10 91.39 83.74 35.27
 69.46 89.45 97.10 91.39 83.74 35.28
 70.11 89.46 97.10 91.41 83.79 35.29
 70.38 89.47 97.11 91.41 83.80 35.30
 70.73 89.47 97.11 91.42 83.83 35.31
 70.73 89.47 97.11 91.42 83.83 35.32
 71.13 89.47 97.10 91.42 83.84 35.33
 71.36 89.48 97.10 91.42 83.85 35.34
 71.36 89.48 97.10 91.42 83.85 35.35
 71.50 89.48 97.09 91.42 83.86 35.36
 71.50 89.48 97.09 91.42 83.86 35.37
 71.62 89.48 97.08 91.41 83.88 35.38
 71.75 89.49 97.06 91.41 83.88 35.39
 71.75 89.49 97.06 91.41 83.88 35.40
 71.87 89.49 97.03 91.40 83.89 35.41
 71.87 89.49 97.03 91.40 83.89 35.42
 71.96 89.49 97.01 91.39 83.90 35.43
 71.96 89.49 97.01 91.39 83.90 35.44
 72.06 89.48 96.99 91.38 83.90 35.45
 72.06 89.48 96.99 91.38 83.90 35.46
 72.17 89.42 96.98 91.38 83.89 35.47
 72.17 89.42 96.98 91.38 83.89 35.48
 72.21 89.21 96.98 91.39 83.88 35.49
 72.21 89.21 96.98 91.39 83.88 35.50
 72.21 89.21 96.98 91.39 83.88 35.51
 71.95 88.73 97.03 91.42 83.86 35.52
 71.95 88.73 97.03 91.42 83.86 35.53
 71.10 87.93 97.15 91.45 83.81 35.54
 71.10 87.93 97.15 91.45 83.81 35.55
 70.44 87.07 97.25 91.48 83.76 35.56
 70.44 87.07 97.25 91.48 83.76 35.57
 70.24 86.95 97.25 91.49 83.73 35.58
 70.24 86.95 97.25 91.49 83.73 35.59
 70.09 86.95 97.23 91.49 83.70 35.60
 70.09 86.95 97.23 91.49 83.70 35.61
 69.91 86.97 97.16 91.48 83.67 35.62
 69.91 86.97 97.16 91.48 83.67 35.63
 69.67 87.07 97.05 91.47 83.64 35.64
 69.67 87.07 97.05 91.47 83.64 35.65
 69.42 87.40 96.89 91.46 83.62 35.66
 69.42 87.40 96.89 91.46 83.62 35.67
 69.18 87.77 96.59 91.44 83.59 35.68
 69.01 88.02 96.29 91.42 83.56 35.69
 69.01 88.02 96.29 91.42 83.56 35.70
 68.86 88.13 96.07 91.40 83.53 35.71
 68.74 88.18 95.90 91.37 83.48 35.72
 68.74 88.18 95.90 91.37 83.48 35.73
 68.64 88.21 95.75 91.34 83.42 35.74
 68.64 88.21 95.75 91.34 83.42 35.75
 68.55 88.23 95.65 91.29 83.35 35.76
 68.49 88.24 95.55 91.23 83.28 35.77
 68.49 88.24 95.55 91.23 83.28 35.78
 68.49 88.24 95.55 91.23 83.28 35.79
 68.47 88.24 95.47 91.18 83.18 35.80
 68.44 88.24 95.38 91.11 83.08 35.81
 68.44 88.24 95.38 91.11 83.08 35.82
 68.43 88.24 95.31 91.03 82.97 35.83
 68.43 88.24 95.31 91.03 82.97 35.84
 68.43 88.24 95.22 90.92 82.89 35.85
 68.43 88.24 95.22 90.92 82.89 35.86
 68.42 88.24 95.15 90.80 82.81 35.88
 68.42 88.24 95.15 90.80 82.81 35.89
 68.41 88.23 95.08 90.69 82.75 35.90
 68.41 88.23 95.08 90.69 82.75 35.91
 68.42 88.22 95.00 90.58 82.68 35.92
 68.42 88.22 95.00 90.58 82.68 35.93
 68.45 88.20 94.91 90.50 82.60 35.94
 68.47 88.18 94.81 90.44 82.53 35.95
 68.47 88.18 94.81 90.44 82.53 35.96
 68.47 88.18 94.81 90.44 82.53 35.97
 68.49 88.15 94.74 90.32 82.47 35.98
 68.49 88.15 94.74 90.32 82.47 35.99
 68.51 88.11 94.66 90.21 82.42 36.00
 68.51 88.11 94.66 90.21 82.42 36.01
 68.58 88.07 94.59 90.11 82.34 36.02
